0.620117187500000
0.629882812500000
0.639648437500000
0.644531250000000
0.649414062500000
0.649414062500000
0.654296875000000
0.659179687500000
0.664062500000000
0.668945312500000
0.668945312500000
0.673828125000000
0.673828125000000
0.678710937500000
0.673828125000000
0.678710937500000
0.673828125000000
0.673828125000000
0.673828125000000
0.668945312500000
0.668945312500000
0.664062500000000
0.659179687500000
0.659179687500000
0.654296875000000
0.654296875000000
0.654296875000000
0.649414062500000
0.649414062500000
0.649414062500000
0.649414062500000
0.644531250000000
0.644531250000000
0.644531250000000
0.639648437500000
0.639648437500000
0.634765625000000
0.629882812500000
0.629882812500000
0.629882812500000
0.625000000000000
0.620117187500000
0.615234375000000
0.615234375000000
0.610351562500000
0.610351562500000
0.605468750000000
0.605468750000000
0.600585937500000
0.600585937500000
0.595703125000000
0.595703125000000
0.595703125000000
0.590820312500000
0.590820312500000
0.585937500000000
0.585937500000000
0.585937500000000
0.581054687500000
0.581054687500000
0.581054687500000
0.576171875000000
0.576171875000000
0.571289062500000
0.571289062500000
0.571289062500000
0.566406250000000
0.566406250000000
0.561523437500000
0.561523437500000
0.561523437500000
0.561523437500000
0.566406250000000
0.571289062500000
0.571289062500000
0.581054687500000
0.590820312500000
0.595703125000000
0.605468750000000
0.610351562500000
0.620117187500000
0.629882812500000
0.634765625000000
0.644531250000000
0.649414062500000
0.654296875000000
0.659179687500000
0.664062500000000
0.668945312500000
0.673828125000000
0.678710937500000
0.683593750000000
0.683593750000000
0.688476562500000
0.693359375000000
0.693359375000000
0.693359375000000
0.693359375000000
0.693359375000000
0.688476562500000
0.688476562500000
0.683593750000000
0.683593750000000
0.678710937500000
0.673828125000000
0.673828125000000
0.668945312500000
0.673828125000000
0.668945312500000
0.664062500000000
0.664062500000000
0.664062500000000
0.664062500000000
0.664062500000000
0.659179687500000
0.664062500000000
0.664062500000000
0.659179687500000
0.659179687500000
0.654296875000000
0.654296875000000
0.654296875000000
0.649414062500000
0.644531250000000
0.644531250000000
0.639648437500000
0.639648437500000
0.634765625000000
0.634765625000000
0.634765625000000
0.629882812500000
0.629882812500000
0.629882812500000
0.629882812500000
0.625000000000000
0.620117187500000
0.620117187500000
0.615234375000000
0.615234375000000
0.610351562500000
0.610351562500000
0.610351562500000
0.605468750000000
0.600585937500000
0.600585937500000
0.595703125000000
0.595703125000000
0.590820312500000
0.585937500000000
0.585937500000000
0.585937500000000
0.585937500000000
0.585937500000000
0.590820312500000
0.590820312500000
0.595703125000000
0.600585937500000
0.610351562500000
0.615234375000000
0.625000000000000
0.629882812500000
0.634765625000000
0.644531250000000
0.649414062500000
0.654296875000000
0.664062500000000
0.668945312500000
0.673828125000000
0.678710937500000
0.683593750000000
0.693359375000000
0.693359375000000
0.698242187500000
0.698242187500000
0.698242187500000
0.698242187500000
0.698242187500000
0.698242187500000
0.693359375000000
0.693359375000000
0.693359375000000
0.688476562500000
0.683593750000000
0.683593750000000
0.678710937500000
0.673828125000000
0.673828125000000
0.668945312500000
0.668945312500000
0.664062500000000
0.664062500000000
0.659179687500000
0.659179687500000
0.659179687500000
0.659179687500000
0.654296875000000
0.654296875000000
0.649414062500000
0.649414062500000
0.644531250000000
0.644531250000000
0.639648437500000
0.634765625000000
0.634765625000000
0.629882812500000
0.629882812500000
0.629882812500000
0.629882812500000
0.625000000000000
0.625000000000000
0.620117187500000
0.615234375000000
0.615234375000000
0.615234375000000
0.615234375000000
0.615234375000000
0.610351562500000
0.610351562500000
0.605468750000000
0.605468750000000
0.600585937500000
0.600585937500000
0.600585937500000
0.595703125000000
0.595703125000000
0.590820312500000
0.590820312500000
0.585937500000000
0.585937500000000
0.585937500000000
0.585937500000000
0.585937500000000
0.585937500000000
0.585937500000000
0.585937500000000
0.585937500000000
0.590820312500000
0.600585937500000
0.605468750000000
0.615234375000000
0.615234375000000
0.629882812500000
0.634765625000000
0.644531250000000
0.649414062500000
0.659179687500000
0.668945312500000
0.668945312500000
0.673828125000000
0.683593750000000
0.688476562500000
0.693359375000000
0.698242187500000
0.698242187500000
0.703125000000000
0.703125000000000
0.703125000000000
0.703125000000000
0.703125000000000
0.703125000000000
0.698242187500000
0.698242187500000
0.698242187500000
0.688476562500000
0.688476562500000
0.683593750000000
0.678710937500000
0.678710937500000
0.673828125000000
0.668945312500000
0.668945312500000
0.664062500000000
0.659179687500000
0.659179687500000
0.654296875000000
0.654296875000000
0.654296875000000
0.649414062500000
0.644531250000000
0.644531250000000
0.639648437500000
0.639648437500000
0.634765625000000
0.634765625000000
0.629882812500000
0.625000000000000
0.625000000000000
0.620117187500000
0.620117187500000
0.615234375000000
0.615234375000000
0.610351562500000
0.610351562500000
0.605468750000000
0.605468750000000
0.605468750000000
0.605468750000000
0.600585937500000
0.595703125000000
0.595703125000000
0.590820312500000
0.590820312500000
0.585937500000000
0.585937500000000
0.581054687500000
0.581054687500000
0.576171875000000
0.576171875000000
0.576171875000000
0.576171875000000
0.571289062500000
0.571289062500000
0.571289062500000
0.571289062500000
0.571289062500000
0.571289062500000
0.571289062500000
0.571289062500000
0.576171875000000
0.581054687500000
0.590820312500000
0.590820312500000
0.600585937500000
0.610351562500000
0.615234375000000
0.625000000000000
0.629882812500000
0.639648437500000
0.649414062500000
0.654296875000000
0.659179687500000
0.668945312500000
0.668945312500000
0.673828125000000
0.678710937500000
0.683593750000000
0.688476562500000
0.688476562500000
0.688476562500000
0.693359375000000
0.693359375000000
0.693359375000000
0.688476562500000
0.688476562500000
0.683593750000000
0.678710937500000
0.678710937500000
0.678710937500000
0.673828125000000
0.668945312500000
0.668945312500000
0.664062500000000
0.659179687500000
0.654296875000000
0.654296875000000
0.654296875000000
0.649414062500000
0.644531250000000
0.644531250000000
0.639648437500000
0.639648437500000
0.634765625000000
0.634765625000000
0.629882812500000
0.629882812500000
0.625000000000000
0.625000000000000
0.620117187500000
0.620117187500000
0.615234375000000
0.615234375000000
0.610351562500000
0.605468750000000
0.605468750000000
0.600585937500000
0.600585937500000
0.595703125000000
0.595703125000000
0.595703125000000
0.590820312500000
0.585937500000000
0.585937500000000
0.585937500000000
0.581054687500000
0.581054687500000
0.581054687500000
0.576171875000000
0.576171875000000
0.576171875000000
0.571289062500000
0.571289062500000
0.566406250000000
0.566406250000000
0.566406250000000
0.561523437500000
0.561523437500000
0.556640625000000
0.556640625000000
0.561523437500000
0.556640625000000
0.561523437500000
0.571289062500000
0.576171875000000
0.585937500000000
0.590820312500000
0.600585937500000
0.610351562500000
0.615234375000000
0.629882812500000
0.634765625000000
0.644531250000000
0.654296875000000
0.659179687500000
0.668945312500000
0.673828125000000
0.678710937500000
0.683593750000000
0.688476562500000
0.693359375000000
0.698242187500000
0.698242187500000
0.698242187500000
0.703125000000000
0.698242187500000
0.698242187500000
0.698242187500000
0.698242187500000
0.698242187500000
0.693359375000000
0.688476562500000
0.683593750000000
0.678710937500000
0.678710937500000
0.673828125000000
0.673828125000000
0.673828125000000
0.668945312500000
0.664062500000000
0.664062500000000
0.659179687500000
0.654296875000000
0.649414062500000
0.649414062500000
0.644531250000000
0.639648437500000
0.639648437500000
0.639648437500000
0.634765625000000
0.629882812500000
0.629882812500000
0.625000000000000
0.620117187500000
0.620117187500000
0.615234375000000
0.615234375000000
0.610351562500000
0.610351562500000
0.605468750000000
0.600585937500000
0.600585937500000
0.595703125000000
0.595703125000000
0.590820312500000
0.590820312500000
0.590820312500000
0.585937500000000
0.585937500000000
0.581054687500000
0.576171875000000
0.581054687500000
0.581054687500000
0.576171875000000
0.576171875000000
0.571289062500000
0.571289062500000
0.571289062500000
0.571289062500000
0.566406250000000
0.566406250000000
0.566406250000000
0.561523437500000
0.561523437500000
0.561523437500000
0.561523437500000
0.556640625000000
0.556640625000000
0.561523437500000
0.561523437500000
0.566406250000000
0.571289062500000
0.576171875000000
0.585937500000000
0.595703125000000
0.605468750000000
0.610351562500000
0.620117187500000
0.629882812500000
0.639648437500000
0.644531250000000
0.659179687500000
0.664062500000000
0.668945312500000
0.673828125000000
0.683593750000000
0.688476562500000
0.688476562500000
0.693359375000000
0.698242187500000
0.698242187500000
0.698242187500000
0.698242187500000
0.703125000000000
0.703125000000000
0.698242187500000
0.698242187500000
0.698242187500000
0.693359375000000
0.693359375000000
0.688476562500000
0.683593750000000
0.683593750000000
0.678710937500000
0.678710937500000
0.673828125000000
0.673828125000000
0.668945312500000
0.668945312500000
0.668945312500000
0.664062500000000
0.659179687500000
0.659179687500000
0.654296875000000
0.654296875000000
0.649414062500000
0.644531250000000
0.644531250000000
0.639648437500000
0.634765625000000
0.634765625000000
0.629882812500000
0.629882812500000
0.629882812500000
0.620117187500000
0.620117187500000
0.615234375000000
0.615234375000000
0.610351562500000
0.605468750000000
0.600585937500000
0.600585937500000
0.600585937500000
0.595703125000000
0.595703125000000
0.590820312500000
0.590820312500000
0.585937500000000
0.585937500000000
0.581054687500000
0.576171875000000
0.576171875000000
0.576171875000000
0.576171875000000
0.576171875000000
0.571289062500000
0.571289062500000
0.566406250000000
0.561523437500000
0.566406250000000
0.561523437500000
0.556640625000000
0.561523437500000
0.556640625000000
0.556640625000000
0.561523437500000
0.556640625000000
0.566406250000000
0.566406250000000
0.576171875000000
0.585937500000000
0.590820312500000
0.600585937500000
0.610351562500000
0.615234375000000
0.629882812500000
0.634765625000000
0.644531250000000
0.649414062500000
0.654296875000000
0.664062500000000
0.668945312500000
0.673828125000000
0.678710937500000
0.683593750000000
0.683593750000000
0.688476562500000
0.688476562500000
0.693359375000000
0.693359375000000
0.688476562500000
0.693359375000000
0.688476562500000
0.683593750000000
0.683593750000000
0.678710937500000
0.678710937500000
0.673828125000000
0.668945312500000
0.668945312500000
0.664062500000000
0.659179687500000
0.659179687500000
0.654296875000000
0.654296875000000
0.649414062500000
0.649414062500000
0.649414062500000
0.644531250000000
0.644531250000000
0.639648437500000
0.639648437500000
0.634765625000000
0.629882812500000
0.629882812500000
0.625000000000000
0.620117187500000
0.620117187500000
0.615234375000000
0.615234375000000
0.610351562500000
0.610351562500000
0.605468750000000
0.605468750000000
0.600585937500000
0.595703125000000
0.590820312500000
0.590820312500000
0.585937500000000
0.585937500000000
0.581054687500000
0.581054687500000
0.576171875000000
0.576171875000000
0.571289062500000
0.571289062500000
0.571289062500000
0.566406250000000
0.566406250000000
0.561523437500000
0.561523437500000
0.556640625000000
0.556640625000000
0.551757812500000
0.551757812500000
0.551757812500000
0.551757812500000
0.551757812500000
0.546875000000000
0.546875000000000
0.546875000000000
0.546875000000000
0.546875000000000
0.546875000000000
0.546875000000000
0.546875000000000
0.551757812500000
0.556640625000000
0.561523437500000
0.566406250000000
0.576171875000000
0.585937500000000
0.595703125000000
0.600585937500000
0.610351562500000
0.620117187500000
0.625000000000000
0.634765625000000
0.639648437500000
0.644531250000000
0.649414062500000
0.654296875000000
0.659179687500000
0.664062500000000
0.664062500000000
0.668945312500000
0.673828125000000
0.668945312500000
0.673828125000000
0.673828125000000
0.673828125000000
0.668945312500000
0.668945312500000
0.668945312500000
0.664062500000000
0.659179687500000
0.659179687500000
0.654296875000000
0.649414062500000
0.649414062500000
0.644531250000000
0.644531250000000
0.644531250000000
0.639648437500000
0.639648437500000
0.639648437500000
0.634765625000000
0.634765625000000
0.629882812500000
0.629882812500000
0.629882812500000
0.629882812500000
0.625000000000000
0.620117187500000
0.620117187500000
0.615234375000000
0.615234375000000
0.615234375000000
0.610351562500000
0.610351562500000
0.610351562500000
0.605468750000000
0.605468750000000
0.600585937500000
0.600585937500000
0.595703125000000
0.595703125000000
0.595703125000000
0.595703125000000
0.590820312500000
0.590820312500000
0.590820312500000
0.585937500000000
0.585937500000000
0.585937500000000
0.581054687500000
0.581054687500000
0.581054687500000
0.576171875000000
0.581054687500000
0.576171875000000
0.576171875000000
0.576171875000000
0.576171875000000
0.576171875000000
0.576171875000000
0.571289062500000
0.571289062500000
0.571289062500000
0.571289062500000
0.566406250000000
0.566406250000000
0.566406250000000
0.566406250000000
0.566406250000000
0.566406250000000
0.566406250000000
0.566406250000000
0.571289062500000
0.576171875000000
0.581054687500000
0.590820312500000
0.595703125000000
0.605468750000000
0.610351562500000
0.625000000000000
0.634765625000000
0.639648437500000
0.644531250000000
0.654296875000000
0.659179687500000
0.664062500000000
0.668945312500000
0.673828125000000
0.678710937500000
0.678710937500000
0.683593750000000
0.683593750000000
0.683593750000000
0.683593750000000
0.683593750000000
0.683593750000000
0.683593750000000
0.678710937500000
0.678710937500000
0.673828125000000
0.668945312500000
0.668945312500000
0.664062500000000
0.659179687500000
0.659179687500000
0.654296875000000
0.649414062500000
0.649414062500000
0.649414062500000
0.649414062500000
0.644531250000000
0.639648437500000
0.639648437500000
0.634765625000000
0.634765625000000
0.634765625000000
0.629882812500000
0.629882812500000
0.629882812500000
0.625000000000000
0.625000000000000
0.620117187500000
0.615234375000000
0.615234375000000
0.610351562500000
0.610351562500000
0.605468750000000
0.600585937500000
0.600585937500000
0.595703125000000
0.595703125000000
0.595703125000000
0.590820312500000
0.590820312500000
0.585937500000000
0.585937500000000
0.590820312500000
0.585937500000000
0.585937500000000
0.581054687500000
0.581054687500000
0.581054687500000
0.581054687500000
0.581054687500000
0.581054687500000
0.576171875000000
0.576171875000000
0.576171875000000
0.571289062500000
0.571289062500000
0.571289062500000
0.566406250000000
0.566406250000000
0.561523437500000
0.561523437500000
0.556640625000000
0.551757812500000
0.551757812500000
0.551757812500000
0.546875000000000
0.546875000000000
0.541992187500000
0.541992187500000
0.541992187500000
0.537109375000000
0.537109375000000
0.541992187500000
0.541992187500000
0.551757812500000
0.556640625000000
0.566406250000000
0.571289062500000
0.585937500000000
0.595703125000000
0.600585937500000
0.610351562500000
0.620117187500000
0.625000000000000
0.634765625000000
0.639648437500000
0.644531250000000
0.649414062500000
0.649414062500000
0.654296875000000
0.659179687500000
0.659179687500000
0.659179687500000
0.664062500000000
0.664062500000000
0.664062500000000
0.664062500000000
0.664062500000000
0.659179687500000
0.659179687500000
0.659179687500000
0.659179687500000
0.654296875000000
0.654296875000000
0.654296875000000
0.649414062500000
0.649414062500000
0.649414062500000
0.644531250000000
0.644531250000000
0.644531250000000
0.644531250000000
0.639648437500000
0.644531250000000
0.639648437500000
0.639648437500000
0.639648437500000
0.634765625000000
0.634765625000000
0.634765625000000
0.629882812500000
0.634765625000000
0.629882812500000
0.629882812500000
0.629882812500000
0.625000000000000
0.620117187500000
0.620117187500000
0.620117187500000
0.620117187500000
0.620117187500000
0.620117187500000
0.625000000000000
0.629882812500000
0.629882812500000
0.629882812500000
0.629882812500000
0.629882812500000
0.629882812500000
0.629882812500000
0.629882812500000
0.629882812500000
0.625000000000000
0.629882812500000
0.625000000000000
0.625000000000000
0.620117187500000
0.620117187500000
0.615234375000000
0.615234375000000
0.610351562500000
0.610351562500000
0.605468750000000
0.605468750000000
0.605468750000000
0.605468750000000
0.605468750000000
0.610351562500000
0.615234375000000
0.620117187500000
0.629882812500000
0.639648437500000
0.644531250000000
0.654296875000000
0.659179687500000
0.664062500000000
0.668945312500000
0.673828125000000
0.678710937500000
0.683593750000000
0.683593750000000
0.688476562500000
0.688476562500000
0.688476562500000
0.693359375000000
0.693359375000000
0.693359375000000
0.693359375000000
0.688476562500000
0.688476562500000
0.688476562500000
0.683593750000000
0.678710937500000
0.678710937500000
0.668945312500000
0.668945312500000
0.668945312500000
0.664062500000000
0.659179687500000
0.659179687500000
0.654296875000000
0.654296875000000
0.654296875000000
0.654296875000000
0.649414062500000
0.649414062500000
0.644531250000000
0.644531250000000
0.644531250000000
0.644531250000000
0.644531250000000
0.639648437500000
0.639648437500000
0.634765625000000
0.634765625000000
0.634765625000000
0.634765625000000
0.629882812500000
0.629882812500000
0.625000000000000
0.620117187500000
0.620117187500000
0.615234375000000
0.615234375000000
0.610351562500000
0.610351562500000
0.605468750000000
0.605468750000000
0.600585937500000
0.600585937500000
0.595703125000000
0.595703125000000
0.590820312500000
0.585937500000000
0.585937500000000
0.585937500000000
0.581054687500000
0.581054687500000
0.581054687500000
0.576171875000000
0.576171875000000
0.571289062500000
0.571289062500000
0.571289062500000
0.566406250000000
0.566406250000000
0.566406250000000
0.561523437500000
0.561523437500000
0.561523437500000
0.556640625000000
0.556640625000000
0.556640625000000
0.556640625000000
0.561523437500000
0.571289062500000
0.576171875000000
0.585937500000000
0.595703125000000
0.605468750000000
0.615234375000000
0.625000000000000
0.634765625000000
0.644531250000000
0.654296875000000
0.659179687500000
0.668945312500000
0.673828125000000
0.678710937500000
0.683593750000000
0.693359375000000
0.693359375000000
0.698242187500000
0.703125000000000
0.703125000000000
0.708007812500000
0.708007812500000
0.708007812500000
0.708007812500000
0.708007812500000
0.708007812500000
0.703125000000000
0.698242187500000
0.693359375000000
0.693359375000000
0.688476562500000
0.683593750000000
0.678710937500000
0.678710937500000
0.673828125000000
0.668945312500000
0.668945312500000
0.664062500000000
0.659179687500000
0.659179687500000
0.654296875000000
0.654296875000000
0.649414062500000
0.649414062500000
0.649414062500000
0.649414062500000
0.649414062500000
0.649414062500000
0.649414062500000
0.649414062500000
0.649414062500000
0.649414062500000
0.649414062500000
0.649414062500000
0.649414062500000
0.649414062500000
0.649414062500000
0.649414062500000
0.649414062500000
0.649414062500000
0.644531250000000
0.644531250000000
0.644531250000000
0.639648437500000
0.639648437500000
0.639648437500000
0.639648437500000
0.634765625000000
0.634765625000000
0.629882812500000
0.629882812500000
0.629882812500000
0.625000000000000
0.625000000000000
0.625000000000000
0.620117187500000
0.620117187500000
0.615234375000000
0.615234375000000
0.610351562500000
0.605468750000000
0.605468750000000
0.600585937500000
0.600585937500000
0.600585937500000
0.600585937500000
0.600585937500000
0.605468750000000
0.610351562500000
0.620117187500000
0.629882812500000
0.634765625000000
0.644531250000000
0.659179687500000
0.668945312500000
0.678710937500000
0.683593750000000
0.693359375000000
0.698242187500000
0.703125000000000
0.712890625000000
0.717773437500000
0.722656250000000
0.727539062500000
0.727539062500000
0.737304687500000
0.732421875000000
0.737304687500000
0.737304687500000
0.737304687500000
0.737304687500000
0.737304687500000
0.737304687500000
0.737304687500000
0.727539062500000
0.727539062500000
0.722656250000000
0.722656250000000
0.717773437500000
0.712890625000000
0.708007812500000
0.708007812500000
0.698242187500000
0.698242187500000
0.693359375000000
0.688476562500000
0.688476562500000
0.683593750000000
0.683593750000000
0.678710937500000
0.678710937500000
0.673828125000000
0.673828125000000
0.668945312500000
0.668945312500000
0.664062500000000
0.664062500000000
0.659179687500000
0.659179687500000
0.654296875000000
0.649414062500000
0.644531250000000
0.639648437500000
0.634765625000000
0.629882812500000
0.625000000000000
0.620117187500000
0.615234375000000
0.605468750000000
0.600585937500000
0.595703125000000
0.590820312500000
0.585937500000000
0.576171875000000
0.571289062500000
0.566406250000000
0.556640625000000
0.546875000000000
0.546875000000000
0.537109375000000
0.527343750000000
0.522460937500000
0.517578125000000
0.512695312500000
0.507812500000000
0.502929687500000
0.498046875000000
0.493164062500000
0.493164062500000
0.498046875000000
0.498046875000000
0.507812500000000
0.517578125000000
0.527343750000000
0.537109375000000
0.546875000000000
0.556640625000000
0.571289062500000
0.576171875000000
0.590820312500000
0.600585937500000
0.605468750000000
0.610351562500000
0.615234375000000
0.625000000000000
0.629882812500000
0.634765625000000
0.639648437500000
0.639648437500000
0.639648437500000
0.644531250000000
0.639648437500000
0.644531250000000
0.639648437500000
0.629882812500000
0.629882812500000
0.620117187500000
0.615234375000000
0.610351562500000
0.600585937500000
0.600585937500000
0.590820312500000
0.585937500000000
0.585937500000000
0.581054687500000
0.576171875000000
0.576171875000000
0.571289062500000
0.566406250000000
0.561523437500000
0.556640625000000
0.551757812500000
0.546875000000000
0.541992187500000
0.541992187500000
0.532226562500000
0.527343750000000
0.527343750000000
0.517578125000000
0.517578125000000
0.512695312500000
0.512695312500000
0.512695312500000
0.507812500000000
0.507812500000000
0.502929687500000
0.507812500000000
0.507812500000000
0.502929687500000
0.502929687500000
0.507812500000000
0.502929687500000
0.502929687500000
0.502929687500000
0.502929687500000
0.502929687500000
0.502929687500000
0.502929687500000
0.502929687500000
0.502929687500000
0.498046875000000
0.502929687500000
0.498046875000000
0.502929687500000
0.502929687500000
0.498046875000000
0.502929687500000
0.502929687500000
0.512695312500000
0.517578125000000
0.527343750000000
0.537109375000000
0.551757812500000
0.556640625000000
0.571289062500000
0.581054687500000
0.590820312500000
0.605468750000000
0.610351562500000
0.620117187500000
0.629882812500000
0.634765625000000
0.639648437500000
0.644531250000000
0.649414062500000
0.654296875000000
0.654296875000000
0.659179687500000
0.664062500000000
0.668945312500000
0.668945312500000
0.673828125000000
0.673828125000000
0.673828125000000
0.673828125000000
0.673828125000000
0.673828125000000
0.673828125000000
0.673828125000000
0.668945312500000
0.668945312500000
0.668945312500000
0.664062500000000
0.664062500000000
0.664062500000000
0.664062500000000
0.659179687500000
0.659179687500000
0.659179687500000
0.659179687500000
0.659179687500000
0.654296875000000
0.654296875000000
0.654296875000000
0.649414062500000
0.649414062500000
0.649414062500000
0.649414062500000
0.649414062500000
0.649414062500000
0.649414062500000
0.649414062500000
0.649414062500000
0.649414062500000
0.649414062500000
0.649414062500000
0.649414062500000
0.649414062500000
0.649414062500000
0.644531250000000
0.639648437500000
0.634765625000000
0.629882812500000
0.625000000000000
0.620117187500000
0.610351562500000
0.605468750000000
0.600585937500000
0.595703125000000
0.585937500000000
0.581054687500000
0.576171875000000
0.571289062500000
0.566406250000000
0.566406250000000
0.561523437500000
0.561523437500000
0.566406250000000
0.571289062500000
0.576171875000000
0.581054687500000
0.590820312500000
0.595703125000000
0.605468750000000
0.610351562500000
0.615234375000000
0.620117187500000
0.629882812500000
0.634765625000000
0.644531250000000
0.649414062500000
0.654296875000000
0.659179687500000
0.664062500000000
0.668945312500000
0.673828125000000
0.678710937500000
0.683593750000000
0.688476562500000
0.688476562500000
0.688476562500000
0.688476562500000
0.688476562500000
0.683593750000000
0.683593750000000
0.683593750000000
0.678710937500000
0.678710937500000
0.673828125000000
0.668945312500000
0.668945312500000
0.664062500000000
0.659179687500000
0.659179687500000
0.654296875000000
0.654296875000000
0.649414062500000
0.649414062500000
0.649414062500000
0.649414062500000
0.649414062500000
0.649414062500000
0.649414062500000
0.649414062500000
0.649414062500000
0.654296875000000
0.654296875000000
0.654296875000000
0.654296875000000
0.649414062500000
0.649414062500000
0.649414062500000
0.644531250000000
0.644531250000000
0.634765625000000
0.634765625000000
0.629882812500000
0.625000000000000
0.620117187500000
0.615234375000000
0.605468750000000
0.605468750000000
0.600585937500000
0.595703125000000
0.590820312500000
0.590820312500000
0.585937500000000
0.590820312500000
0.585937500000000
0.590820312500000
0.590820312500000
0.590820312500000
0.590820312500000
0.595703125000000
0.595703125000000
0.605468750000000
0.610351562500000
0.615234375000000
0.620117187500000
0.629882812500000
0.634765625000000
0.639648437500000
0.644531250000000
0.649414062500000
0.654296875000000
0.659179687500000
0.659179687500000
0.668945312500000
0.668945312500000
0.673828125000000
0.673828125000000
0.683593750000000
0.688476562500000
0.693359375000000
0.698242187500000
0.698242187500000
0.703125000000000
0.708007812500000
0.708007812500000
0.708007812500000
0.708007812500000
0.708007812500000
0.712890625000000
0.708007812500000
0.708007812500000
0.708007812500000
0.703125000000000
0.703125000000000
0.698242187500000
0.693359375000000
0.693359375000000
0.688476562500000
0.683593750000000
0.678710937500000
0.673828125000000
0.668945312500000
0.664062500000000
0.664062500000000
0.659179687500000
0.654296875000000
0.649414062500000
0.644531250000000
0.639648437500000
0.639648437500000
0.629882812500000
0.629882812500000
0.625000000000000
0.620117187500000
0.615234375000000
0.610351562500000
0.605468750000000
0.600585937500000
0.590820312500000
0.585937500000000
0.581054687500000
0.571289062500000
0.566406250000000
0.556640625000000
0.546875000000000
0.541992187500000
0.532226562500000
0.527343750000000
0.522460937500000
0.512695312500000
0.507812500000000
0.502929687500000
0.498046875000000
0.493164062500000
0.488281250000000
0.483398437500000
0.478515625000000
0.478515625000000
0.473632812500000
0.473632812500000
0.468750000000000
0.473632812500000
0.473632812500000
0.478515625000000
0.488281250000000
0.498046875000000
0.512695312500000
0.522460937500000
0.537109375000000
0.551757812500000
0.566406250000000
0.576171875000000
0.595703125000000
0.605468750000000
0.615234375000000
0.625000000000000
0.634765625000000
0.639648437500000
0.644531250000000
0.654296875000000
0.654296875000000
0.659179687500000
0.664062500000000
0.664062500000000
0.664062500000000
0.668945312500000
0.664062500000000
0.668945312500000
0.664062500000000
0.659179687500000
0.659179687500000
0.654296875000000
0.649414062500000
0.644531250000000
0.644531250000000
0.639648437500000
0.639648437500000
0.634765625000000
0.629882812500000
0.629882812500000
0.625000000000000
0.620117187500000
0.620117187500000
0.620117187500000
0.615234375000000
0.610351562500000
0.610351562500000
0.610351562500000
0.605468750000000
0.605468750000000
0.600585937500000
0.600585937500000
0.600585937500000
0.600585937500000
0.595703125000000
0.595703125000000
0.590820312500000
0.590820312500000
0.585937500000000
0.585937500000000
0.581054687500000
0.581054687500000
0.581054687500000
0.581054687500000
0.576171875000000
0.576171875000000
0.576171875000000
0.571289062500000
0.571289062500000
0.571289062500000
0.571289062500000
0.566406250000000
0.566406250000000
0.561523437500000
0.561523437500000
0.561523437500000
0.561523437500000
0.561523437500000
0.561523437500000
0.566406250000000
0.571289062500000
0.581054687500000
0.585937500000000
0.600585937500000
0.605468750000000
0.615234375000000
0.629882812500000
0.634765625000000
0.639648437500000
0.649414062500000
0.654296875000000
0.659179687500000
0.668945312500000
0.668945312500000
0.673828125000000
0.673828125000000
0.678710937500000
0.678710937500000
0.683593750000000
0.683593750000000
0.678710937500000
0.678710937500000
0.678710937500000
0.673828125000000
0.673828125000000
0.668945312500000
0.664062500000000
0.664062500000000
0.659179687500000
0.659179687500000
0.659179687500000
0.654296875000000
0.649414062500000
0.649414062500000
0.644531250000000
0.644531250000000
0.639648437500000
0.639648437500000
0.634765625000000
0.634765625000000
0.629882812500000
0.629882812500000
0.629882812500000
0.625000000000000
0.625000000000000
0.625000000000000
0.620117187500000
0.620117187500000
0.620117187500000
0.615234375000000
0.615234375000000
0.610351562500000
0.605468750000000
0.605468750000000
0.605468750000000
0.600585937500000
0.595703125000000
0.590820312500000
0.590820312500000
0.590820312500000
0.585937500000000
0.581054687500000
0.581054687500000
0.576171875000000
0.576171875000000
0.571289062500000
0.571289062500000
0.571289062500000
0.566406250000000
0.566406250000000
0.561523437500000
0.561523437500000
0.561523437500000
0.561523437500000
0.571289062500000
0.576171875000000
0.581054687500000
0.585937500000000
0.600585937500000
0.605468750000000
0.615234375000000
0.620117187500000
0.629882812500000
0.639648437500000
0.644531250000000
0.649414062500000
0.659179687500000
0.664062500000000
0.668945312500000
0.673828125000000
0.678710937500000
0.678710937500000
0.683593750000000
0.683593750000000
0.688476562500000
0.688476562500000
0.688476562500000
0.688476562500000
0.688476562500000
0.683593750000000
0.683593750000000
0.683593750000000
0.683593750000000
0.678710937500000
0.673828125000000
0.668945312500000
0.668945312500000
0.668945312500000
0.664062500000000
0.659179687500000
0.659179687500000
0.654296875000000
0.654296875000000
0.649414062500000
0.649414062500000
0.649414062500000
0.644531250000000
0.644531250000000
0.644531250000000
0.639648437500000
0.639648437500000
0.634765625000000
0.634765625000000
0.634765625000000
0.629882812500000
0.629882812500000
0.629882812500000
0.625000000000000
0.625000000000000
0.620117187500000
0.620117187500000
0.615234375000000
0.615234375000000
0.610351562500000
0.610351562500000
0.605468750000000
0.605468750000000
0.600585937500000
0.600585937500000
0.600585937500000
0.595703125000000
0.595703125000000
0.590820312500000
0.590820312500000
0.590820312500000
0.585937500000000
0.590820312500000
0.585937500000000
0.590820312500000
0.590820312500000
0.600585937500000
0.605468750000000
0.615234375000000
0.620117187500000
0.629882812500000
0.639648437500000
0.649414062500000
0.659179687500000
0.668945312500000
0.673828125000000
0.683593750000000
0.688476562500000
0.698242187500000
0.703125000000000
0.708007812500000
0.712890625000000
0.717773437500000
0.722656250000000
0.722656250000000
0.722656250000000
0.727539062500000
0.727539062500000
0.727539062500000
0.722656250000000
0.722656250000000
0.722656250000000
0.717773437500000
0.712890625000000
0.712890625000000
0.708007812500000
0.703125000000000
0.698242187500000
0.698242187500000
0.693359375000000
0.688476562500000
0.683593750000000
0.683593750000000
0.678710937500000
0.673828125000000
0.673828125000000
0.668945312500000
0.668945312500000
0.664062500000000
0.659179687500000
0.659179687500000
0.654296875000000
0.654296875000000
0.649414062500000
0.644531250000000
0.644531250000000
0.639648437500000
0.639648437500000
0.634765625000000
0.634765625000000
0.629882812500000
0.629882812500000
0.629882812500000
0.625000000000000
0.625000000000000
0.620117187500000
0.620117187500000
0.620117187500000
0.615234375000000
0.615234375000000
0.610351562500000
0.610351562500000
0.610351562500000
0.610351562500000
0.605468750000000
0.605468750000000
0.600585937500000
0.600585937500000
0.595703125000000
0.595703125000000
0.590820312500000
0.585937500000000
0.590820312500000
0.590820312500000
0.595703125000000
0.600585937500000
0.605468750000000
0.610351562500000
0.620117187500000
0.634765625000000
0.639648437500000
0.649414062500000
0.659179687500000
0.668945312500000
0.673828125000000
0.678710937500000
0.688476562500000
0.693359375000000
0.698242187500000
0.698242187500000
0.703125000000000
0.708007812500000
0.708007812500000
0.703125000000000
0.708007812500000
0.708007812500000
0.708007812500000
0.708007812500000
0.703125000000000
0.703125000000000
0.698242187500000
0.693359375000000
0.693359375000000
0.683593750000000
0.683593750000000
0.673828125000000
0.668945312500000
0.664062500000000
0.659179687500000
0.659179687500000
0.654296875000000
0.644531250000000
0.644531250000000
0.634765625000000
0.634765625000000
0.629882812500000
0.629882812500000
0.625000000000000
0.620117187500000
0.615234375000000
0.610351562500000
0.600585937500000
0.595703125000000
0.595703125000000
0.590820312500000
0.585937500000000
0.581054687500000
0.576171875000000
0.576171875000000
0.571289062500000
0.566406250000000
0.561523437500000
0.556640625000000
0.556640625000000
0.551757812500000
0.551757812500000
0.546875000000000
0.546875000000000
0.546875000000000
0.546875000000000
0.541992187500000
0.541992187500000
0.541992187500000
0.541992187500000
0.537109375000000
0.537109375000000
0.537109375000000
0.532226562500000
0.532226562500000
0.527343750000000
0.527343750000000
0.527343750000000
0.522460937500000
0.522460937500000
0.532226562500000
0.537109375000000
0.541992187500000
0.551757812500000
0.561523437500000
0.571289062500000
0.581054687500000
0.590820312500000
0.600585937500000
0.605468750000000
0.615234375000000
0.625000000000000
0.629882812500000
0.634765625000000
0.639648437500000
0.644531250000000
0.649414062500000
0.654296875000000
0.654296875000000
0.659179687500000
0.659179687500000
0.659179687500000
0.659179687500000
0.654296875000000
0.654296875000000
0.654296875000000
0.654296875000000
0.649414062500000
0.649414062500000
0.644531250000000
0.644531250000000
0.639648437500000
0.634765625000000
0.634765625000000
0.629882812500000
0.629882812500000
0.625000000000000
0.620117187500000
0.620117187500000
0.615234375000000
0.615234375000000
0.615234375000000
0.610351562500000
0.605468750000000
0.600585937500000
0.600585937500000
0.600585937500000
0.595703125000000
0.595703125000000
0.590820312500000
0.585937500000000
0.585937500000000
0.585937500000000
0.585937500000000
0.581054687500000
0.576171875000000
0.576171875000000
0.571289062500000
0.571289062500000
0.571289062500000
0.566406250000000
0.566406250000000
0.566406250000000
0.561523437500000
0.561523437500000
0.556640625000000
0.556640625000000
0.556640625000000
0.551757812500000
0.551757812500000
0.556640625000000
0.551757812500000
0.546875000000000
0.546875000000000
0.546875000000000
0.546875000000000
0.541992187500000
0.541992187500000
0.541992187500000
0.537109375000000
0.537109375000000
0.537109375000000
0.541992187500000
0.551757812500000
0.556640625000000
0.566406250000000
0.576171875000000
0.585937500000000
0.600585937500000
0.610351562500000
0.620117187500000
0.629882812500000
0.639648437500000
0.644531250000000
0.654296875000000
0.654296875000000
0.664062500000000
0.668945312500000
0.668945312500000
0.673828125000000
0.678710937500000
0.673828125000000
0.678710937500000
0.678710937500000
0.678710937500000
0.678710937500000
0.673828125000000
0.673828125000000
0.668945312500000
0.668945312500000
0.668945312500000
0.664062500000000
0.664062500000000
0.659179687500000
0.654296875000000
0.654296875000000
0.649414062500000
0.649414062500000
0.649414062500000
0.644531250000000
0.644531250000000
0.644531250000000
0.639648437500000
0.639648437500000
0.634765625000000
0.634765625000000
0.634765625000000
0.634765625000000
0.634765625000000
0.629882812500000
0.629882812500000
0.625000000000000
0.620117187500000
0.620117187500000
0.615234375000000
0.610351562500000
0.610351562500000
0.605468750000000
0.600585937500000
0.595703125000000
0.595703125000000
0.590820312500000
0.585937500000000
0.585937500000000
0.585937500000000
0.581054687500000
0.581054687500000
0.576171875000000
0.571289062500000
0.571289062500000
0.566406250000000
0.566406250000000
0.561523437500000
0.561523437500000
0.556640625000000
0.551757812500000
0.551757812500000
0.551757812500000
0.551757812500000
0.551757812500000
0.556640625000000
0.566406250000000
0.571289062500000
0.581054687500000
0.590820312500000
0.600585937500000
0.610351562500000
0.620117187500000
0.629882812500000
0.639648437500000
0.644531250000000
0.654296875000000
0.659179687500000
0.664062500000000
0.668945312500000
0.673828125000000
0.678710937500000
0.678710937500000
0.683593750000000
0.683593750000000
0.688476562500000
0.688476562500000
0.688476562500000
0.688476562500000
0.688476562500000
0.688476562500000
0.683593750000000
0.683593750000000
0.683593750000000
0.678710937500000
0.678710937500000
0.673828125000000
0.673828125000000
0.668945312500000
0.668945312500000
0.668945312500000
0.664062500000000
0.664062500000000
0.659179687500000
0.654296875000000
0.654296875000000
0.649414062500000
0.649414062500000
0.644531250000000
0.644531250000000
0.639648437500000
0.634765625000000
0.629882812500000
0.629882812500000
0.625000000000000
0.620117187500000
0.615234375000000
0.610351562500000
0.605468750000000
0.600585937500000
0.600585937500000
0.590820312500000
0.585937500000000
0.581054687500000
0.581054687500000
0.571289062500000
0.571289062500000
0.566406250000000
0.561523437500000
0.561523437500000
0.556640625000000
0.556640625000000
0.551757812500000
0.546875000000000
0.541992187500000
0.541992187500000
0.537109375000000
0.537109375000000
0.532226562500000
0.527343750000000
0.527343750000000
0.527343750000000
0.527343750000000
0.522460937500000
0.527343750000000
0.532226562500000
0.541992187500000
0.546875000000000
0.561523437500000
0.566406250000000
0.576171875000000
0.590820312500000
0.595703125000000
0.610351562500000
0.620117187500000
0.629882812500000
0.634765625000000
0.639648437500000
0.649414062500000
0.654296875000000
0.659179687500000
0.664062500000000
0.668945312500000
0.673828125000000
0.673828125000000
0.673828125000000
0.678710937500000
0.678710937500000
0.673828125000000
0.678710937500000
0.673828125000000
0.673828125000000
0.668945312500000
0.664062500000000
0.664062500000000
0.659179687500000
0.659179687500000
0.654296875000000
0.654296875000000
0.654296875000000
0.649414062500000
0.649414062500000
0.649414062500000
0.644531250000000
0.644531250000000
0.644531250000000
0.639648437500000
0.639648437500000
0.639648437500000
0.634765625000000
0.634765625000000
0.634765625000000
0.634765625000000
0.634765625000000
0.629882812500000
0.629882812500000
0.629882812500000
0.620117187500000
0.620117187500000
0.620117187500000
0.615234375000000
0.620117187500000
0.610351562500000
0.610351562500000
0.610351562500000
0.605468750000000
0.605468750000000
0.600585937500000
0.595703125000000
0.600585937500000
0.595703125000000
0.595703125000000
0.590820312500000
0.590820312500000
0.590820312500000
0.585937500000000
0.585937500000000
0.581054687500000
0.581054687500000
0.581054687500000
0.581054687500000
0.576171875000000
0.581054687500000
0.581054687500000
0.585937500000000
0.590820312500000
0.595703125000000
0.605468750000000
0.615234375000000
0.625000000000000
0.629882812500000
0.639648437500000
0.649414062500000
0.659179687500000
0.664062500000000
0.673828125000000
0.678710937500000
0.678710937500000
0.683593750000000
0.683593750000000
0.688476562500000
0.688476562500000
0.688476562500000
0.693359375000000
0.688476562500000
0.688476562500000
0.688476562500000
0.688476562500000
0.683593750000000
0.683593750000000
0.678710937500000
0.678710937500000
0.678710937500000
0.673828125000000
0.668945312500000
0.668945312500000
0.668945312500000
0.668945312500000
0.664062500000000
0.664062500000000
0.659179687500000
0.659179687500000
0.659179687500000
0.659179687500000
0.664062500000000
0.659179687500000
0.659179687500000
0.659179687500000
0.654296875000000
0.654296875000000
0.654296875000000
0.649414062500000
0.644531250000000
0.644531250000000
0.639648437500000
0.639648437500000
0.634765625000000
0.634765625000000
0.629882812500000
0.629882812500000
0.625000000000000
0.620117187500000
0.620117187500000
0.620117187500000
0.615234375000000
0.610351562500000
0.605468750000000
0.605468750000000
0.600585937500000
0.600585937500000
0.595703125000000
0.595703125000000
0.590820312500000
0.585937500000000
0.585937500000000
0.581054687500000
0.581054687500000
0.576171875000000
0.571289062500000
0.571289062500000
0.566406250000000
0.566406250000000
0.561523437500000
0.556640625000000
0.561523437500000
0.561523437500000
0.566406250000000
0.571289062500000
0.581054687500000
0.585937500000000
0.595703125000000
0.600585937500000
0.610351562500000
0.620117187500000
0.629882812500000
0.639648437500000
0.649414062500000
0.654296875000000
0.659179687500000
0.664062500000000
0.668945312500000
0.673828125000000
0.683593750000000
0.683593750000000
0.688476562500000
0.688476562500000
0.693359375000000
0.688476562500000
0.693359375000000
0.688476562500000
0.688476562500000
0.688476562500000
0.688476562500000
0.688476562500000
0.683593750000000
0.678710937500000
0.678710937500000
0.673828125000000
0.673828125000000
0.668945312500000
0.668945312500000
0.664062500000000
0.664062500000000
0.659179687500000
0.654296875000000
0.654296875000000
0.654296875000000
0.654296875000000
0.649414062500000
0.644531250000000
0.644531250000000
0.639648437500000
0.639648437500000
0.634765625000000
0.629882812500000
0.629882812500000
0.625000000000000
0.625000000000000
0.620117187500000
0.615234375000000
0.615234375000000
0.610351562500000
0.605468750000000
0.600585937500000
0.600585937500000
0.595703125000000
0.590820312500000
0.590820312500000
0.590820312500000
0.585937500000000
0.585937500000000
0.581054687500000
0.581054687500000
0.581054687500000
0.576171875000000
0.576171875000000
0.576171875000000
0.571289062500000
0.571289062500000
0.571289062500000
0.571289062500000
0.566406250000000
0.566406250000000
0.571289062500000
0.566406250000000
0.566406250000000
0.566406250000000
0.566406250000000
0.566406250000000
0.566406250000000
0.566406250000000
0.566406250000000
0.566406250000000
0.571289062500000
0.581054687500000
0.585937500000000
0.595703125000000
0.610351562500000
0.620117187500000
0.629882812500000
0.639648437500000
0.649414062500000
0.654296875000000
0.664062500000000
0.668945312500000
0.678710937500000
0.683593750000000
0.688476562500000
0.693359375000000
0.698242187500000
0.703125000000000
0.703125000000000
0.708007812500000
0.708007812500000
0.708007812500000
0.703125000000000
0.703125000000000
0.698242187500000
0.698242187500000
0.688476562500000
0.683593750000000
0.683593750000000
0.678710937500000
0.668945312500000
0.668945312500000
0.659179687500000
0.659179687500000
0.654296875000000
0.649414062500000
0.644531250000000
0.639648437500000
0.639648437500000
0.634765625000000
0.629882812500000
0.625000000000000
0.620117187500000
0.620117187500000
0.615234375000000
0.610351562500000
0.610351562500000
0.605468750000000
0.600585937500000
0.595703125000000
0.595703125000000
0.590820312500000
0.585937500000000
0.581054687500000
0.581054687500000
0.576171875000000
0.571289062500000
0.571289062500000
0.566406250000000
0.566406250000000
0.561523437500000
0.561523437500000
0.551757812500000
0.551757812500000
0.551757812500000
0.546875000000000
0.546875000000000
0.546875000000000
0.546875000000000
0.541992187500000
0.537109375000000
0.541992187500000
0.541992187500000
0.537109375000000
0.532226562500000
0.537109375000000
0.532226562500000
0.532226562500000
0.532226562500000
0.527343750000000
0.532226562500000
0.532226562500000
0.537109375000000
0.537109375000000
0.546875000000000
0.556640625000000
0.566406250000000
0.571289062500000
0.581054687500000
0.595703125000000
0.600585937500000
0.605468750000000
0.615234375000000
0.625000000000000
0.629882812500000
0.639648437500000
0.644531250000000
0.649414062500000
0.649414062500000
0.659179687500000
0.659179687500000
0.664062500000000
0.668945312500000
0.668945312500000
0.668945312500000
0.668945312500000
0.668945312500000
0.668945312500000
0.668945312500000
0.664062500000000
0.664062500000000
0.664062500000000
0.659179687500000
0.659179687500000
0.654296875000000
0.654296875000000
0.649414062500000
0.649414062500000
0.649414062500000
0.649414062500000
0.649414062500000
0.649414062500000
0.649414062500000
0.649414062500000
0.644531250000000
0.644531250000000
0.644531250000000
0.644531250000000
0.639648437500000
0.639648437500000
0.639648437500000
0.634765625000000
0.634765625000000
0.634765625000000
0.634765625000000
0.629882812500000
0.625000000000000
0.625000000000000
0.620117187500000
0.620117187500000
0.615234375000000
0.610351562500000
0.610351562500000
0.605468750000000
0.605468750000000
0.600585937500000
0.600585937500000
0.595703125000000
0.590820312500000
0.590820312500000
0.585937500000000
0.585937500000000
0.581054687500000
0.581054687500000
0.576171875000000
0.571289062500000
0.571289062500000
0.571289062500000
0.566406250000000
0.566406250000000
0.561523437500000
0.561523437500000
0.561523437500000
0.561523437500000
0.561523437500000
0.566406250000000
0.571289062500000
0.571289062500000
0.581054687500000
0.590820312500000
0.595703125000000
0.605468750000000
0.615234375000000
0.620117187500000
0.629882812500000
0.639648437500000
0.644531250000000
0.654296875000000
0.654296875000000
0.664062500000000
0.668945312500000
0.673828125000000
0.678710937500000
0.678710937500000
0.683593750000000
0.683593750000000
0.683593750000000
0.683593750000000
0.688476562500000
0.683593750000000
0.683593750000000
0.683593750000000
0.683593750000000
0.678710937500000
0.678710937500000
0.678710937500000
0.673828125000000
0.673828125000000
0.673828125000000
0.668945312500000
0.668945312500000
0.668945312500000
0.664062500000000
0.664062500000000
0.659179687500000
0.654296875000000
0.654296875000000
0.649414062500000
0.649414062500000
0.644531250000000
0.639648437500000
0.634765625000000
0.629882812500000
0.629882812500000
0.625000000000000
0.620117187500000
0.615234375000000
0.610351562500000
0.600585937500000
0.600585937500000
0.595703125000000
0.590820312500000
0.590820312500000
0.585937500000000
0.581054687500000
0.581054687500000
0.576171875000000
0.571289062500000
0.571289062500000
0.566406250000000
0.566406250000000
0.561523437500000
0.556640625000000
0.551757812500000
0.551757812500000
0.546875000000000
0.546875000000000
0.541992187500000
0.541992187500000
0.537109375000000
0.537109375000000
0.532226562500000
0.532226562500000
0.527343750000000
0.527343750000000
0.527343750000000
0.527343750000000
0.522460937500000
0.517578125000000
0.522460937500000
0.517578125000000
0.522460937500000
0.522460937500000
0.527343750000000
0.527343750000000
0.537109375000000
0.546875000000000
0.551757812500000
0.561523437500000
0.566406250000000
0.576171875000000
0.585937500000000
0.590820312500000
0.600585937500000
0.610351562500000
0.615234375000000
0.620117187500000
0.625000000000000
0.629882812500000
0.634765625000000
0.639648437500000
0.639648437500000
0.644531250000000
0.649414062500000
0.649414062500000
0.654296875000000
0.654296875000000
0.649414062500000
0.654296875000000
0.649414062500000
0.649414062500000
0.649414062500000
0.644531250000000
0.644531250000000
0.639648437500000
0.639648437500000
0.634765625000000
0.634765625000000
0.629882812500000
0.629882812500000
0.629882812500000
0.625000000000000
0.629882812500000
0.625000000000000
0.625000000000000
0.620117187500000
0.620117187500000
0.620117187500000
0.615234375000000
0.615234375000000
0.610351562500000
0.610351562500000
0.605468750000000
0.605468750000000
0.600585937500000
0.600585937500000
0.600585937500000
0.595703125000000
0.595703125000000
0.595703125000000
0.590820312500000
0.590820312500000
0.585937500000000
0.585937500000000
0.585937500000000
0.585937500000000
0.581054687500000
0.576171875000000
0.581054687500000
0.576171875000000
0.576171875000000
0.576171875000000
0.571289062500000
0.571289062500000
0.571289062500000
0.566406250000000
0.566406250000000
0.566406250000000
0.561523437500000
0.561523437500000
0.556640625000000
0.561523437500000
0.556640625000000
0.556640625000000
0.556640625000000
0.551757812500000
0.551757812500000
0.551757812500000
0.551757812500000
0.551757812500000
0.551757812500000
0.556640625000000
0.561523437500000
0.566406250000000
0.571289062500000
0.581054687500000
0.585937500000000
0.595703125000000
0.600585937500000
0.610351562500000
0.615234375000000
0.620117187500000
0.629882812500000
0.629882812500000
0.634765625000000
0.644531250000000
0.644531250000000
0.649414062500000
0.654296875000000
0.654296875000000
0.659179687500000
0.659179687500000
0.659179687500000
0.659179687500000
0.659179687500000
0.659179687500000
0.659179687500000
0.654296875000000
0.654296875000000
0.649414062500000
0.649414062500000
0.644531250000000
0.644531250000000
0.644531250000000
0.639648437500000
0.639648437500000
0.634765625000000
0.634765625000000
0.634765625000000
0.634765625000000
0.629882812500000
0.629882812500000
0.629882812500000
0.625000000000000
0.625000000000000
0.620117187500000
0.620117187500000
0.620117187500000
0.615234375000000
0.615234375000000
0.610351562500000
0.610351562500000
0.605468750000000
0.605468750000000
0.600585937500000
0.600585937500000
0.600585937500000
0.595703125000000
0.595703125000000
0.595703125000000
0.590820312500000
0.590820312500000
0.585937500000000
0.585937500000000
0.581054687500000
0.581054687500000
0.576171875000000
0.576171875000000
0.576171875000000
0.571289062500000
0.566406250000000
0.566406250000000
0.561523437500000
0.566406250000000
0.561523437500000
0.556640625000000
0.556640625000000
0.551757812500000
0.551757812500000
0.551757812500000
0.551757812500000
0.551757812500000
0.551757812500000
0.551757812500000
0.561523437500000
0.561523437500000
0.571289062500000
0.576171875000000
0.581054687500000
0.590820312500000
0.600585937500000
0.605468750000000
0.615234375000000
0.620117187500000
0.629882812500000
0.634765625000000
0.634765625000000
0.644531250000000
0.649414062500000
0.654296875000000
0.654296875000000
0.659179687500000
0.664062500000000
0.668945312500000
0.668945312500000
0.668945312500000
0.668945312500000
0.668945312500000
0.668945312500000
0.668945312500000
0.668945312500000
0.668945312500000
0.664062500000000
0.664062500000000
0.659179687500000
0.659179687500000
0.654296875000000
0.654296875000000
0.654296875000000
0.654296875000000
0.649414062500000
0.649414062500000
0.649414062500000
0.644531250000000
0.644531250000000
0.639648437500000
0.639648437500000
0.634765625000000
0.634765625000000
0.634765625000000
0.629882812500000
0.629882812500000
0.625000000000000
0.620117187500000
0.620117187500000
0.620117187500000
0.615234375000000
0.615234375000000
0.610351562500000
0.605468750000000
0.605468750000000
0.595703125000000
0.595703125000000
0.590820312500000
0.590820312500000
0.590820312500000
0.581054687500000
0.576171875000000
0.576171875000000
0.571289062500000
0.571289062500000
0.571289062500000
0.566406250000000
0.561523437500000
0.561523437500000
0.556640625000000
0.556640625000000
0.551757812500000
0.551757812500000
0.546875000000000
0.541992187500000
0.541992187500000
0.537109375000000
0.537109375000000
0.532226562500000
0.532226562500000
0.532226562500000
0.532226562500000
0.532226562500000
0.537109375000000
0.541992187500000
0.546875000000000
0.551757812500000
0.556640625000000
0.566406250000000
0.571289062500000
0.581054687500000
0.585937500000000
0.590820312500000
0.600585937500000
0.605468750000000
0.610351562500000
0.615234375000000
0.620117187500000
0.625000000000000
0.629882812500000
0.629882812500000
0.634765625000000
0.639648437500000
0.639648437500000
0.639648437500000
0.639648437500000
0.639648437500000
0.639648437500000
0.639648437500000
0.634765625000000
0.634765625000000
0.629882812500000
0.629882812500000
0.629882812500000
0.629882812500000
0.629882812500000
0.625000000000000
0.620117187500000
0.620117187500000
0.620117187500000
0.615234375000000
0.620117187500000
0.615234375000000
0.615234375000000
0.615234375000000
0.615234375000000
0.610351562500000
0.610351562500000
0.610351562500000
0.610351562500000
0.610351562500000
0.605468750000000
0.605468750000000
0.600585937500000
0.605468750000000
0.600585937500000
0.600585937500000
0.600585937500000
0.600585937500000
0.595703125000000
0.595703125000000
0.590820312500000
0.590820312500000
0.590820312500000
0.590820312500000
0.585937500000000
0.585937500000000
0.585937500000000
0.581054687500000
0.581054687500000
0.581054687500000
0.581054687500000
0.581054687500000
0.581054687500000
0.576171875000000
0.581054687500000
0.576171875000000
0.576171875000000
0.576171875000000
0.576171875000000
0.581054687500000
0.581054687500000
0.585937500000000
0.590820312500000
0.595703125000000
0.600585937500000
0.610351562500000
0.615234375000000
0.625000000000000
0.629882812500000
0.639648437500000
0.644531250000000
0.649414062500000
0.654296875000000
0.659179687500000
0.668945312500000
0.673828125000000
0.678710937500000
0.683593750000000
0.688476562500000
0.688476562500000
0.693359375000000
0.693359375000000
0.698242187500000
0.698242187500000
0.698242187500000
0.698242187500000
0.698242187500000
0.698242187500000
0.693359375000000
0.698242187500000
0.693359375000000
0.693359375000000
0.688476562500000
0.688476562500000
0.688476562500000
0.683593750000000
0.683593750000000
0.678710937500000
0.678710937500000
0.678710937500000
0.678710937500000
0.673828125000000
0.673828125000000
0.668945312500000
0.668945312500000
0.668945312500000
0.664062500000000
0.659179687500000
0.659179687500000
0.654296875000000
0.654296875000000
0.649414062500000
0.649414062500000
0.644531250000000
0.639648437500000
0.639648437500000
0.634765625000000
0.634765625000000
0.629882812500000
0.629882812500000
0.629882812500000
0.625000000000000
0.620117187500000
0.625000000000000
0.620117187500000
0.620117187500000
0.620117187500000
0.615234375000000
0.615234375000000
0.615234375000000
0.610351562500000
0.605468750000000
0.605468750000000
0.605468750000000
0.600585937500000
0.595703125000000
0.595703125000000
0.590820312500000
0.590820312500000
0.585937500000000
0.581054687500000
0.585937500000000
0.581054687500000
0.581054687500000
0.585937500000000
0.585937500000000
0.590820312500000
0.595703125000000
0.600585937500000
0.605468750000000
0.615234375000000
0.620117187500000
0.629882812500000
0.634765625000000
0.639648437500000
0.644531250000000
0.654296875000000
0.659179687500000
0.664062500000000
0.668945312500000
0.673828125000000
0.673828125000000
0.678710937500000
0.683593750000000
0.683593750000000
0.683593750000000
0.688476562500000
0.688476562500000
0.688476562500000
0.688476562500000
0.688476562500000
0.688476562500000
0.683593750000000
0.683593750000000
0.683593750000000
0.678710937500000
0.683593750000000
0.678710937500000
0.673828125000000
0.673828125000000
0.673828125000000
0.668945312500000
0.668945312500000
0.668945312500000
0.668945312500000
0.668945312500000
0.664062500000000
0.664062500000000
0.659179687500000
0.659179687500000
0.659179687500000
0.654296875000000
0.649414062500000
0.649414062500000
0.644531250000000
0.639648437500000
0.634765625000000
0.634765625000000
0.629882812500000
0.629882812500000
0.625000000000000
0.620117187500000
0.615234375000000
0.615234375000000
0.610351562500000
0.610351562500000
0.605468750000000
0.605468750000000
0.605468750000000
0.600585937500000
0.600585937500000
0.600585937500000
0.595703125000000
0.595703125000000
0.595703125000000
0.590820312500000
0.590820312500000
0.590820312500000
0.590820312500000
0.585937500000000
0.585937500000000
0.585937500000000
0.585937500000000
0.581054687500000
0.585937500000000
0.581054687500000
0.581054687500000
0.581054687500000
0.576171875000000
0.576171875000000
0.576171875000000
0.576171875000000
0.581054687500000
0.581054687500000
0.585937500000000
0.590820312500000
0.595703125000000
0.605468750000000
0.610351562500000
0.620117187500000
0.629882812500000
0.629882812500000
0.639648437500000
0.649414062500000
0.654296875000000
0.659179687500000
0.664062500000000
0.668945312500000
0.673828125000000
0.678710937500000
0.678710937500000
0.683593750000000
0.683593750000000
0.688476562500000
0.688476562500000
0.688476562500000
0.688476562500000
0.688476562500000
0.683593750000000
0.683593750000000
0.678710937500000
0.678710937500000
0.678710937500000
0.673828125000000
0.668945312500000
0.668945312500000
0.664062500000000
0.659179687500000
0.659179687500000
0.654296875000000
0.649414062500000
0.649414062500000
0.644531250000000
0.644531250000000
0.639648437500000
0.639648437500000
0.634765625000000
0.629882812500000
0.629882812500000
0.629882812500000
0.625000000000000
0.620117187500000
0.620117187500000
0.615234375000000
0.610351562500000
0.605468750000000
0.600585937500000
0.600585937500000
0.595703125000000
0.590820312500000
0.585937500000000
0.585937500000000
0.581054687500000
0.576171875000000
0.571289062500000
0.566406250000000
0.561523437500000
0.556640625000000
0.556640625000000
0.551757812500000
0.551757812500000
0.546875000000000
0.546875000000000
0.546875000000000
0.541992187500000
0.541992187500000
0.537109375000000
0.537109375000000
0.537109375000000
0.532226562500000
0.532226562500000
0.532226562500000
0.527343750000000
0.527343750000000
0.527343750000000
0.527343750000000
0.527343750000000
0.527343750000000
0.522460937500000
0.522460937500000
0.522460937500000
0.522460937500000
0.522460937500000
0.527343750000000
0.532226562500000
0.537109375000000
0.541992187500000
0.546875000000000
0.556640625000000
0.566406250000000
0.571289062500000
0.581054687500000
0.590820312500000
0.600585937500000
0.605468750000000
0.610351562500000
0.620117187500000
0.629882812500000
0.634765625000000
0.639648437500000
0.644531250000000
0.649414062500000
0.649414062500000
0.654296875000000
0.659179687500000
0.659179687500000
0.664062500000000
0.659179687500000
0.664062500000000
0.664062500000000
0.659179687500000
0.659179687500000
0.659179687500000
0.654296875000000
0.654296875000000
0.654296875000000
0.649414062500000
0.649414062500000
0.649414062500000
0.649414062500000
0.644531250000000
0.644531250000000
0.644531250000000
0.639648437500000
0.639648437500000
0.639648437500000
0.639648437500000
0.639648437500000
0.639648437500000
0.634765625000000
0.634765625000000
0.634765625000000
0.634765625000000
0.629882812500000
0.629882812500000
0.629882812500000
0.625000000000000
0.625000000000000
0.625000000000000
0.620117187500000
0.620117187500000
0.620117187500000
0.615234375000000
0.615234375000000
0.615234375000000
0.615234375000000
0.615234375000000
0.610351562500000
0.610351562500000
0.610351562500000
0.605468750000000
0.605468750000000
0.605468750000000
0.605468750000000
0.605468750000000
0.600585937500000
0.600585937500000
0.600585937500000
0.600585937500000
0.600585937500000
0.600585937500000
0.595703125000000
0.595703125000000
0.595703125000000
0.595703125000000
0.590820312500000
0.590820312500000
0.590820312500000
0.585937500000000
0.585937500000000
0.585937500000000
0.581054687500000
0.581054687500000
0.581054687500000
0.581054687500000
0.585937500000000
0.590820312500000
0.595703125000000
0.600585937500000
0.605468750000000
0.615234375000000
0.620117187500000
0.629882812500000
0.634765625000000
0.639648437500000
0.639648437500000
0.644531250000000
0.649414062500000
0.654296875000000
0.659179687500000
0.654296875000000
0.664062500000000
0.664062500000000
0.664062500000000
0.668945312500000
0.664062500000000
0.668945312500000
0.664062500000000
0.664062500000000
0.664062500000000
0.659179687500000
0.654296875000000
0.654296875000000
0.649414062500000
0.644531250000000
0.644531250000000
0.639648437500000
0.639648437500000
0.634765625000000
0.629882812500000
0.629882812500000
0.629882812500000
0.625000000000000
0.625000000000000
0.620117187500000
0.620117187500000
0.615234375000000
0.615234375000000
0.615234375000000
0.610351562500000
0.605468750000000
0.605468750000000
0.600585937500000
0.600585937500000
0.595703125000000
0.595703125000000
0.590820312500000
0.585937500000000
0.585937500000000
0.581054687500000
0.581054687500000
0.576171875000000
0.571289062500000
0.576171875000000
0.571289062500000
0.571289062500000
0.571289062500000
0.566406250000000
0.571289062500000
0.571289062500000
0.566406250000000
0.566406250000000
0.571289062500000
0.571289062500000
0.571289062500000
0.566406250000000
0.566406250000000
0.571289062500000
0.561523437500000
0.561523437500000
0.561523437500000
0.556640625000000
0.556640625000000
0.556640625000000
0.551757812500000
0.551757812500000
0.551757812500000
0.546875000000000
0.551757812500000
0.551757812500000
0.551757812500000
0.556640625000000
0.561523437500000
0.571289062500000
0.576171875000000
0.585937500000000
0.590820312500000
0.600585937500000
0.605468750000000
0.615234375000000
0.625000000000000
0.629882812500000
0.634765625000000
0.639648437500000
0.649414062500000
0.654296875000000
0.659179687500000
0.659179687500000
0.668945312500000
0.673828125000000
0.673828125000000
0.678710937500000
0.678710937500000
0.673828125000000
0.678710937500000
0.673828125000000
0.673828125000000
0.673828125000000
0.673828125000000
0.673828125000000
0.668945312500000
0.664062500000000
0.668945312500000
0.664062500000000
0.664062500000000
0.664062500000000
0.659179687500000
0.664062500000000
0.659179687500000
0.659179687500000
0.659179687500000
0.659179687500000
0.654296875000000
0.654296875000000
0.654296875000000
0.654296875000000
0.649414062500000
0.649414062500000
0.649414062500000
0.644531250000000
0.644531250000000
0.644531250000000
0.639648437500000
0.639648437500000
0.634765625000000
0.634765625000000
0.634765625000000
0.629882812500000
0.629882812500000
0.629882812500000
0.629882812500000
0.625000000000000
0.620117187500000
0.620117187500000
0.620117187500000
0.620117187500000
0.615234375000000
0.615234375000000
0.615234375000000
0.615234375000000
0.610351562500000
0.610351562500000
0.605468750000000
0.605468750000000
0.605468750000000
0.605468750000000
0.600585937500000
0.600585937500000
0.600585937500000
0.605468750000000
0.605468750000000
0.610351562500000
0.615234375000000
0.620117187500000
0.629882812500000
0.634765625000000
0.644531250000000
0.649414062500000
0.659179687500000
0.659179687500000
0.668945312500000
0.673828125000000
0.678710937500000
0.683593750000000
0.683593750000000
0.688476562500000
0.693359375000000
0.693359375000000
0.698242187500000
0.693359375000000
0.693359375000000
0.693359375000000
0.693359375000000
0.688476562500000
0.688476562500000
0.683593750000000
0.678710937500000
0.678710937500000
0.668945312500000
0.668945312500000
0.664062500000000
0.659179687500000
0.659179687500000
0.654296875000000
0.654296875000000
0.649414062500000
0.644531250000000
0.644531250000000
0.639648437500000
0.634765625000000
0.634765625000000
0.629882812500000
0.625000000000000
0.620117187500000
0.615234375000000
0.615234375000000
0.610351562500000
0.605468750000000
0.600585937500000
0.600585937500000
0.595703125000000
0.590820312500000
0.590820312500000
0.585937500000000
0.581054687500000
0.576171875000000
0.576171875000000
0.571289062500000
0.571289062500000
0.566406250000000
0.566406250000000
0.561523437500000
0.561523437500000
0.556640625000000
0.561523437500000
0.551757812500000
0.551757812500000
0.551757812500000
0.551757812500000
0.551757812500000
0.546875000000000
0.546875000000000
0.541992187500000
0.541992187500000
0.541992187500000
0.541992187500000
0.541992187500000
0.541992187500000
0.546875000000000
0.546875000000000
0.551757812500000
0.561523437500000
0.571289062500000
0.581054687500000
0.585937500000000
0.595703125000000
0.610351562500000
0.615234375000000
0.625000000000000
0.629882812500000
0.639648437500000
0.649414062500000
0.654296875000000
0.664062500000000
0.668945312500000
0.673828125000000
0.683593750000000
0.688476562500000
0.693359375000000
0.698242187500000
0.703125000000000
0.703125000000000
0.708007812500000
0.708007812500000
0.708007812500000
0.708007812500000
0.708007812500000
0.708007812500000
0.703125000000000
0.703125000000000
0.703125000000000
0.703125000000000
0.698242187500000
0.698242187500000
0.698242187500000
0.698242187500000
0.698242187500000
0.693359375000000
0.693359375000000
0.693359375000000
0.693359375000000
0.688476562500000
0.683593750000000
0.683593750000000
0.683593750000000
0.683593750000000
0.678710937500000
0.678710937500000
0.678710937500000
0.673828125000000
0.673828125000000
0.668945312500000
0.664062500000000
0.664062500000000
0.659179687500000
0.659179687500000
0.659179687500000
0.654296875000000
0.654296875000000
0.649414062500000
0.649414062500000
0.644531250000000
0.639648437500000
0.639648437500000
0.639648437500000
0.634765625000000
0.634765625000000
0.629882812500000
0.629882812500000
0.629882812500000
0.629882812500000
0.625000000000000
0.620117187500000
0.620117187500000
0.620117187500000
0.615234375000000
0.615234375000000
0.615234375000000
0.615234375000000
0.615234375000000
0.620117187500000
0.625000000000000
0.629882812500000
0.634765625000000
0.644531250000000
0.654296875000000
0.659179687500000
0.668945312500000
0.673828125000000
0.683593750000000
0.688476562500000
0.698242187500000
0.703125000000000
0.708007812500000
0.712890625000000
0.722656250000000
0.722656250000000
0.727539062500000
0.732421875000000
0.737304687500000
0.737304687500000
0.742187500000000
0.737304687500000
0.742187500000000
0.737304687500000
0.737304687500000
0.737304687500000
0.732421875000000
0.732421875000000
0.727539062500000
0.722656250000000
0.722656250000000
0.717773437500000
0.712890625000000
0.712890625000000
0.708007812500000
0.703125000000000
0.698242187500000
0.698242187500000
0.693359375000000
0.688476562500000
0.683593750000000
0.683593750000000
0.678710937500000
0.673828125000000
0.668945312500000
0.664062500000000
0.664062500000000
0.659179687500000
0.654296875000000
0.649414062500000
0.644531250000000
0.639648437500000
0.634765625000000
0.634765625000000
0.629882812500000
0.625000000000000
0.615234375000000
0.615234375000000
0.610351562500000
0.605468750000000
0.600585937500000
0.595703125000000
0.590820312500000
0.590820312500000
0.585937500000000
0.581054687500000
0.581054687500000
0.576171875000000
0.571289062500000
0.571289062500000
0.566406250000000
0.561523437500000
0.561523437500000
0.556640625000000
0.556640625000000
0.551757812500000
0.551757812500000
0.546875000000000
0.546875000000000
0.546875000000000
0.546875000000000
0.556640625000000
0.556640625000000
0.566406250000000
0.576171875000000
0.581054687500000
0.585937500000000
0.595703125000000
0.605468750000000
0.615234375000000
0.620117187500000
0.629882812500000
0.634765625000000
0.639648437500000
0.644531250000000
0.649414062500000
0.654296875000000
0.659179687500000
0.664062500000000
0.668945312500000
0.668945312500000
0.673828125000000
0.678710937500000
0.678710937500000
0.678710937500000
0.678710937500000
0.678710937500000
0.673828125000000
0.673828125000000
0.668945312500000
0.668945312500000
0.668945312500000
0.664062500000000
0.664062500000000
0.659179687500000
0.659179687500000
0.659179687500000
0.654296875000000
0.654296875000000
0.649414062500000
0.649414062500000
0.649414062500000
0.644531250000000
0.644531250000000
0.644531250000000
0.639648437500000
0.639648437500000
0.639648437500000
0.634765625000000
0.634765625000000
0.629882812500000
0.629882812500000
0.629882812500000
0.625000000000000
0.620117187500000
0.620117187500000
0.615234375000000
0.615234375000000
0.615234375000000
0.610351562500000
0.605468750000000
0.605468750000000
0.605468750000000
0.600585937500000
0.600585937500000
0.600585937500000
0.595703125000000
0.590820312500000
0.590820312500000
0.590820312500000
0.590820312500000
0.585937500000000
0.585937500000000
0.585937500000000
0.581054687500000
0.581054687500000
0.581054687500000
0.576171875000000
0.576171875000000
0.576171875000000
0.576171875000000
0.576171875000000
0.576171875000000
0.581054687500000
0.585937500000000
0.590820312500000
0.600585937500000
0.610351562500000
0.615234375000000
0.625000000000000
0.629882812500000
0.634765625000000
0.639648437500000
0.649414062500000
0.654296875000000
0.659179687500000
0.664062500000000
0.673828125000000
0.673828125000000
0.678710937500000
0.683593750000000
0.683593750000000
0.688476562500000
0.688476562500000
0.688476562500000
0.688476562500000
0.688476562500000
0.683593750000000
0.683593750000000
0.683593750000000
0.678710937500000
0.673828125000000
0.673828125000000
0.668945312500000
0.668945312500000
0.664062500000000
0.659179687500000
0.659179687500000
0.654296875000000
0.649414062500000
0.649414062500000
0.644531250000000
0.644531250000000
0.639648437500000
0.634765625000000
0.629882812500000
0.629882812500000
0.629882812500000
0.620117187500000
0.620117187500000
0.615234375000000
0.610351562500000
0.605468750000000
0.600585937500000
0.600585937500000
0.595703125000000
0.590820312500000
0.590820312500000
0.581054687500000
0.581054687500000
0.576171875000000
0.576171875000000
0.571289062500000
0.566406250000000
0.566406250000000
0.561523437500000
0.556640625000000
0.556640625000000
0.551757812500000
0.551757812500000
0.551757812500000
0.551757812500000
0.551757812500000
0.546875000000000
0.541992187500000
0.541992187500000
0.541992187500000
0.537109375000000
0.541992187500000
0.537109375000000
0.537109375000000
0.541992187500000
0.541992187500000
0.546875000000000
0.556640625000000
0.561523437500000
0.566406250000000
0.571289062500000
0.585937500000000
0.590820312500000
0.595703125000000
0.605468750000000
0.610351562500000
0.620117187500000
0.629882812500000
0.629882812500000
0.634765625000000
0.639648437500000
0.644531250000000
0.649414062500000
0.649414062500000
0.654296875000000
0.654296875000000
0.659179687500000
0.659179687500000
0.659179687500000
0.664062500000000
0.659179687500000
0.659179687500000
0.654296875000000
0.654296875000000
0.649414062500000
0.649414062500000
0.644531250000000
0.644531250000000
0.644531250000000
0.639648437500000
0.639648437500000
0.639648437500000
0.634765625000000
0.634765625000000
0.629882812500000
0.629882812500000
0.629882812500000
0.629882812500000
0.629882812500000
0.625000000000000
0.625000000000000
0.620117187500000
0.620117187500000
0.615234375000000
0.615234375000000
0.610351562500000
0.610351562500000
0.610351562500000
0.605468750000000
0.605468750000000
0.600585937500000
0.600585937500000
0.600585937500000
0.595703125000000
0.595703125000000
0.590820312500000
0.590820312500000
0.590820312500000
0.585937500000000
0.585937500000000
0.585937500000000
0.581054687500000
0.576171875000000
0.581054687500000
0.576171875000000
0.576171875000000
0.576171875000000
0.571289062500000
0.571289062500000
0.571289062500000
0.576171875000000
0.576171875000000
0.576171875000000
0.585937500000000
0.590820312500000
0.595703125000000
0.600585937500000
0.605468750000000
0.615234375000000
0.620117187500000
0.625000000000000
0.629882812500000
0.634765625000000
0.644531250000000
0.649414062500000
0.649414062500000
0.654296875000000
0.659179687500000
0.659179687500000
0.664062500000000
0.664062500000000
0.668945312500000
0.668945312500000
0.668945312500000
0.668945312500000
0.668945312500000
0.664062500000000
0.668945312500000
0.659179687500000
0.659179687500000
0.659179687500000
0.654296875000000
0.654296875000000
0.649414062500000
0.644531250000000
0.644531250000000
0.639648437500000
0.639648437500000
0.639648437500000
0.634765625000000
0.634765625000000
0.634765625000000
0.629882812500000
0.629882812500000
0.629882812500000
0.625000000000000
0.620117187500000
0.620117187500000
0.615234375000000
0.615234375000000
0.610351562500000
0.610351562500000
0.605468750000000
0.605468750000000
0.600585937500000
0.600585937500000
0.595703125000000
0.590820312500000
0.590820312500000
0.590820312500000
0.585937500000000
0.585937500000000
0.581054687500000
0.581054687500000
0.581054687500000
0.581054687500000
0.576171875000000
0.576171875000000
0.571289062500000
0.571289062500000
0.566406250000000
0.561523437500000
0.561523437500000
0.561523437500000
0.556640625000000
0.556640625000000
0.551757812500000
0.551757812500000
0.551757812500000
0.551757812500000
0.551757812500000
0.556640625000000
0.556640625000000
0.561523437500000
0.566406250000000
0.576171875000000
0.581054687500000
0.590820312500000
0.600585937500000
0.605468750000000
0.615234375000000
0.620117187500000
0.629882812500000
0.634765625000000
0.644531250000000
0.644531250000000
0.649414062500000
0.654296875000000
0.659179687500000
0.664062500000000
0.668945312500000
0.668945312500000
0.673828125000000
0.673828125000000
0.678710937500000
0.678710937500000
0.683593750000000
0.678710937500000
0.678710937500000
0.678710937500000
0.673828125000000
0.673828125000000
0.668945312500000
0.668945312500000
0.664062500000000
0.664062500000000
0.659179687500000
0.659179687500000
0.659179687500000
0.654296875000000
0.654296875000000
0.649414062500000
0.649414062500000
0.644531250000000
0.639648437500000
0.639648437500000
0.634765625000000
0.634765625000000
0.629882812500000
0.629882812500000
0.625000000000000
0.620117187500000
0.615234375000000
0.615234375000000
0.610351562500000
0.610351562500000
0.610351562500000
0.600585937500000
0.600585937500000
0.600585937500000
0.595703125000000
0.590820312500000
0.590820312500000
0.585937500000000
0.585937500000000
0.581054687500000
0.581054687500000
0.581054687500000
0.576171875000000
0.576171875000000
0.571289062500000
0.571289062500000
0.566406250000000
0.566406250000000
0.561523437500000
0.561523437500000
0.556640625000000
0.561523437500000
0.556640625000000
0.551757812500000
0.551757812500000
0.551757812500000
0.551757812500000
0.551757812500000
0.551757812500000
0.551757812500000
0.551757812500000
0.556640625000000
0.561523437500000
0.566406250000000
0.571289062500000
0.576171875000000
0.585937500000000
0.590820312500000
0.595703125000000
0.605468750000000
0.610351562500000
0.615234375000000
0.625000000000000
0.629882812500000
0.634765625000000
0.639648437500000
0.639648437500000
0.644531250000000
0.649414062500000
0.649414062500000
0.654296875000000
0.654296875000000
0.654296875000000
0.659179687500000
0.659179687500000
0.659179687500000
0.659179687500000
0.654296875000000
0.654296875000000
0.649414062500000
0.649414062500000
0.644531250000000
0.639648437500000
0.639648437500000
0.634765625000000
0.634765625000000
0.629882812500000
0.629882812500000
0.625000000000000
0.620117187500000
0.620117187500000
0.615234375000000
0.615234375000000
0.615234375000000
0.610351562500000
0.605468750000000
0.600585937500000
0.600585937500000
0.595703125000000
0.590820312500000
0.590820312500000
0.585937500000000
0.581054687500000
0.581054687500000
0.576171875000000
0.571289062500000
0.571289062500000
0.566406250000000
0.566406250000000
0.561523437500000
0.561523437500000
0.556640625000000
0.551757812500000
0.551757812500000
0.546875000000000
0.546875000000000
0.541992187500000
0.541992187500000
0.541992187500000
0.541992187500000
0.537109375000000
0.537109375000000
0.532226562500000
0.532226562500000
0.532226562500000
0.532226562500000
0.532226562500000
0.532226562500000
0.532226562500000
0.532226562500000
0.532226562500000
0.537109375000000
0.541992187500000
0.546875000000000
0.556640625000000
0.561523437500000
0.571289062500000
0.576171875000000
0.581054687500000
0.595703125000000
0.600585937500000
0.605468750000000
0.615234375000000
0.615234375000000
0.625000000000000
0.629882812500000
0.634765625000000
0.639648437500000
0.644531250000000
0.644531250000000
0.649414062500000
0.654296875000000
0.654296875000000
0.659179687500000
0.659179687500000
0.659179687500000
0.659179687500000
0.654296875000000
0.654296875000000
0.654296875000000
0.649414062500000
0.644531250000000
0.639648437500000
0.639648437500000
0.634765625000000
0.629882812500000
0.629882812500000
0.629882812500000
0.625000000000000
0.620117187500000
0.615234375000000
0.615234375000000
0.615234375000000
0.610351562500000
0.610351562500000
0.605468750000000
0.605468750000000
0.600585937500000
0.600585937500000
0.600585937500000
0.595703125000000
0.595703125000000
0.595703125000000
0.590820312500000
0.585937500000000
0.590820312500000
0.581054687500000
0.581054687500000
0.581054687500000
0.576171875000000
0.576171875000000
0.571289062500000
0.571289062500000
0.566406250000000
0.566406250000000
0.561523437500000
0.561523437500000
0.556640625000000
0.551757812500000
0.551757812500000
0.546875000000000
0.546875000000000
0.541992187500000
0.546875000000000
0.541992187500000
0.537109375000000
0.537109375000000
0.537109375000000
0.537109375000000
0.532226562500000
0.532226562500000
0.532226562500000
0.532226562500000
0.532226562500000
0.532226562500000
0.532226562500000
0.537109375000000
0.541992187500000
0.541992187500000
0.546875000000000
0.551757812500000
0.561523437500000
0.566406250000000
0.571289062500000
0.581054687500000
0.585937500000000
0.590820312500000
0.595703125000000
0.600585937500000
0.605468750000000
0.610351562500000
0.610351562500000
0.615234375000000
0.620117187500000
0.620117187500000
0.625000000000000
0.629882812500000
0.629882812500000
0.629882812500000
0.629882812500000
0.629882812500000
0.629882812500000
0.625000000000000
0.625000000000000
0.620117187500000
0.615234375000000
0.615234375000000
0.610351562500000
0.610351562500000
0.600585937500000
0.600585937500000
0.595703125000000
0.595703125000000
0.590820312500000
0.590820312500000
0.590820312500000
0.585937500000000
0.585937500000000
0.585937500000000
0.585937500000000
0.581054687500000
0.576171875000000
0.576171875000000
0.576171875000000
0.571289062500000
0.571289062500000
0.571289062500000
0.571289062500000
0.566406250000000
0.566406250000000
0.566406250000000
0.561523437500000
0.561523437500000
0.561523437500000
0.556640625000000
0.561523437500000
0.556640625000000
0.556640625000000
0.551757812500000
0.551757812500000
0.551757812500000
0.551757812500000
0.551757812500000
0.546875000000000
0.546875000000000
0.546875000000000
0.546875000000000
0.541992187500000
0.546875000000000
0.541992187500000
0.537109375000000
0.537109375000000
0.537109375000000
0.537109375000000
0.537109375000000
0.532226562500000
0.532226562500000
0.532226562500000
0.532226562500000
0.527343750000000
0.527343750000000
0.527343750000000
0.527343750000000
0.527343750000000
0.527343750000000
0.532226562500000
0.537109375000000
0.541992187500000
0.546875000000000
0.556640625000000
0.561523437500000
0.571289062500000
0.576171875000000
0.585937500000000
0.595703125000000
0.600585937500000
0.605468750000000
0.610351562500000
0.615234375000000
0.620117187500000
0.625000000000000
0.629882812500000
0.634765625000000
0.634765625000000
0.639648437500000
0.639648437500000
0.639648437500000
0.644531250000000
0.644531250000000
0.639648437500000
0.644531250000000
0.644531250000000
0.639648437500000
0.639648437500000
0.639648437500000
0.634765625000000
0.634765625000000
0.629882812500000
0.629882812500000
0.625000000000000
0.625000000000000
0.620117187500000
0.620117187500000
0.615234375000000
0.620117187500000
0.615234375000000
0.610351562500000
0.610351562500000
0.610351562500000
0.605468750000000
0.605468750000000
0.600585937500000
0.600585937500000
0.600585937500000
0.595703125000000
0.595703125000000
0.590820312500000
0.590820312500000
0.590820312500000
0.585937500000000
0.585937500000000
0.585937500000000
0.581054687500000
0.581054687500000
0.576171875000000
0.576171875000000
0.576171875000000
0.576171875000000
0.576171875000000
0.571289062500000
0.576171875000000
0.566406250000000
0.571289062500000
0.566406250000000
0.566406250000000
0.566406250000000
0.566406250000000
0.566406250000000
0.566406250000000
0.566406250000000
0.561523437500000
0.566406250000000
0.561523437500000
0.561523437500000
0.561523437500000
0.556640625000000
0.556640625000000
0.556640625000000
0.556640625000000
0.556640625000000
0.561523437500000
0.566406250000000
0.571289062500000
0.576171875000000
0.581054687500000
0.590820312500000
0.595703125000000
0.600585937500000
0.610351562500000
0.615234375000000
0.620117187500000
0.625000000000000
0.629882812500000
0.634765625000000
0.639648437500000
0.639648437500000
0.644531250000000
0.644531250000000
0.649414062500000
0.649414062500000
0.654296875000000
0.654296875000000
0.654296875000000
0.654296875000000
0.654296875000000
0.654296875000000
0.649414062500000
0.644531250000000
0.644531250000000
0.639648437500000
0.634765625000000
0.634765625000000
0.634765625000000
0.629882812500000
0.629882812500000
0.629882812500000
0.625000000000000
0.620117187500000
0.620117187500000
0.620117187500000
0.620117187500000
0.615234375000000
0.615234375000000
0.610351562500000
0.610351562500000
0.605468750000000
0.605468750000000
0.600585937500000
0.600585937500000
0.595703125000000
0.595703125000000
0.595703125000000
0.590820312500000
0.590820312500000
0.585937500000000
0.585937500000000
0.581054687500000
0.581054687500000
0.581054687500000
0.576171875000000
0.576171875000000
0.576171875000000
0.571289062500000
0.566406250000000
0.566406250000000
0.566406250000000
0.566406250000000
0.561523437500000
0.566406250000000
0.561523437500000
0.561523437500000
0.561523437500000
0.561523437500000
0.561523437500000
0.561523437500000
0.561523437500000
0.561523437500000
0.561523437500000
0.561523437500000
0.561523437500000
0.561523437500000
0.561523437500000
0.566406250000000
0.566406250000000
0.571289062500000
0.576171875000000
0.581054687500000
0.585937500000000
0.590820312500000
0.600585937500000
0.610351562500000
0.615234375000000
0.625000000000000
0.629882812500000
0.634765625000000
0.644531250000000
0.644531250000000
0.649414062500000
0.659179687500000
0.664062500000000
0.664062500000000
0.668945312500000
0.668945312500000
0.673828125000000
0.673828125000000
0.673828125000000
0.678710937500000
0.673828125000000
0.678710937500000
0.678710937500000
0.673828125000000
0.673828125000000
0.668945312500000
0.668945312500000
0.664062500000000
0.664062500000000
0.659179687500000
0.659179687500000
0.654296875000000
0.654296875000000
0.649414062500000
0.649414062500000
0.644531250000000
0.644531250000000
0.644531250000000
0.639648437500000
0.634765625000000
0.634765625000000
0.634765625000000
0.634765625000000
0.629882812500000
0.629882812500000
0.625000000000000
0.620117187500000
0.620117187500000
0.620117187500000
0.615234375000000
0.615234375000000
0.610351562500000
0.610351562500000
0.610351562500000
0.605468750000000
0.605468750000000
0.605468750000000
0.600585937500000
0.600585937500000
0.595703125000000
0.590820312500000
0.590820312500000
0.590820312500000
0.585937500000000
0.585937500000000
0.581054687500000
0.581054687500000
0.576171875000000
0.576171875000000
0.576171875000000
0.571289062500000
0.571289062500000
0.571289062500000
0.566406250000000
0.566406250000000
0.566406250000000
0.566406250000000
0.566406250000000
0.561523437500000
0.561523437500000
0.561523437500000
0.556640625000000
0.556640625000000
0.551757812500000
0.551757812500000
0.556640625000000
0.551757812500000
0.556640625000000
0.556640625000000
0.561523437500000
0.566406250000000
0.571289062500000
0.576171875000000
0.585937500000000
0.590820312500000
0.600585937500000
0.605468750000000
0.615234375000000
0.620117187500000
0.629882812500000
0.634765625000000
0.639648437500000
0.644531250000000
0.649414062500000
0.654296875000000
0.659179687500000
0.664062500000000
0.668945312500000
0.668945312500000
0.673828125000000
0.673828125000000
0.673828125000000
0.673828125000000
0.673828125000000
0.673828125000000
0.668945312500000
0.668945312500000
0.668945312500000
0.664062500000000
0.664062500000000
0.664062500000000
0.659179687500000
0.654296875000000
0.654296875000000
0.654296875000000
0.649414062500000
0.649414062500000
0.644531250000000
0.644531250000000
0.639648437500000
0.639648437500000
0.639648437500000
0.634765625000000
0.634765625000000
0.634765625000000
0.634765625000000
0.634765625000000
0.629882812500000
0.629882812500000
0.629882812500000
0.625000000000000
0.625000000000000
0.620117187500000
0.620117187500000
0.615234375000000
0.615234375000000
0.615234375000000
0.610351562500000
0.605468750000000
0.605468750000000
0.605468750000000
0.605468750000000
0.600585937500000
0.600585937500000
0.595703125000000
0.595703125000000
0.590820312500000
0.590820312500000
0.585937500000000
0.585937500000000
0.585937500000000
0.585937500000000
0.585937500000000
0.581054687500000
0.585937500000000
0.581054687500000
0.581054687500000
0.585937500000000
0.581054687500000
0.581054687500000
0.581054687500000
0.581054687500000
0.581054687500000
0.585937500000000
0.585937500000000
0.590820312500000
0.595703125000000
0.600585937500000
0.605468750000000
0.615234375000000
0.620117187500000
0.629882812500000
0.634765625000000
0.634765625000000
0.639648437500000
0.649414062500000
0.654296875000000
0.659179687500000
0.659179687500000
0.664062500000000
0.668945312500000
0.668945312500000
0.673828125000000
0.668945312500000
0.673828125000000
0.673828125000000
0.673828125000000
0.673828125000000
0.673828125000000
0.668945312500000
0.668945312500000
0.664062500000000
0.664062500000000
0.659179687500000
0.654296875000000
0.654296875000000
0.649414062500000
0.649414062500000
0.644531250000000
0.639648437500000
0.639648437500000
0.634765625000000
0.629882812500000
0.629882812500000
0.629882812500000
0.625000000000000
0.625000000000000
0.625000000000000
0.620117187500000
0.615234375000000
0.615234375000000
0.610351562500000
0.610351562500000
0.610351562500000
0.610351562500000
0.605468750000000
0.605468750000000
0.600585937500000
0.600585937500000
0.600585937500000
0.595703125000000
0.595703125000000
0.590820312500000
0.590820312500000
0.590820312500000
0.585937500000000
0.585937500000000
0.585937500000000
0.581054687500000
0.581054687500000
0.581054687500000
0.581054687500000
0.581054687500000
0.576171875000000
0.576171875000000
0.576171875000000
0.576171875000000
0.571289062500000
0.571289062500000
0.571289062500000
0.571289062500000
0.566406250000000
0.566406250000000
0.561523437500000
0.561523437500000
0.561523437500000
0.556640625000000
0.556640625000000
0.556640625000000
0.556640625000000
0.561523437500000
0.566406250000000
0.571289062500000
0.581054687500000
0.585937500000000
0.590820312500000
0.600585937500000
0.610351562500000
0.615234375000000
0.620117187500000
0.629882812500000
0.634765625000000
0.639648437500000
0.644531250000000
0.649414062500000
0.654296875000000
0.654296875000000
0.659179687500000
0.664062500000000
0.668945312500000
0.668945312500000
0.668945312500000
0.668945312500000
0.668945312500000
0.668945312500000
0.664062500000000
0.664062500000000
0.664062500000000
0.659179687500000
0.659179687500000
0.659179687500000
0.654296875000000
0.654296875000000
0.649414062500000
0.649414062500000
0.644531250000000
0.644531250000000
0.644531250000000
0.639648437500000
0.639648437500000
0.639648437500000
0.634765625000000
0.634765625000000
0.629882812500000
0.629882812500000
0.629882812500000
0.629882812500000
0.629882812500000
0.625000000000000
0.620117187500000
0.620117187500000
0.620117187500000
0.620117187500000
0.615234375000000
0.615234375000000
0.615234375000000
0.610351562500000
0.610351562500000
0.610351562500000
0.605468750000000
0.600585937500000
0.600585937500000
0.600585937500000
0.595703125000000
0.595703125000000
0.590820312500000
0.590820312500000
0.585937500000000
0.585937500000000
0.585937500000000
0.585937500000000
0.581054687500000
0.581054687500000
0.576171875000000
0.576171875000000
0.571289062500000
0.571289062500000
0.571289062500000
0.571289062500000
0.566406250000000
0.566406250000000
0.561523437500000
0.561523437500000
0.561523437500000
0.556640625000000
0.556640625000000
0.561523437500000
0.561523437500000
0.561523437500000
0.566406250000000
0.571289062500000
0.581054687500000
0.585937500000000
0.595703125000000
0.600585937500000
0.610351562500000
0.620117187500000
0.625000000000000
0.634765625000000
0.639648437500000
0.644531250000000
0.654296875000000
0.659179687500000
0.664062500000000
0.668945312500000
0.668945312500000
0.673828125000000
0.678710937500000
0.678710937500000
0.683593750000000
0.683593750000000
0.678710937500000
0.683593750000000
0.678710937500000
0.673828125000000
0.673828125000000
0.673828125000000
0.668945312500000
0.668945312500000
0.664062500000000
0.659179687500000
0.659179687500000
0.654296875000000
0.654296875000000
0.649414062500000
0.644531250000000
0.644531250000000
0.639648437500000
0.639648437500000
0.639648437500000
0.634765625000000
0.634765625000000
0.629882812500000
0.629882812500000
0.629882812500000
0.629882812500000
0.629882812500000
0.625000000000000
0.625000000000000
0.620117187500000
0.620117187500000
0.620117187500000
0.615234375000000
0.615234375000000
0.610351562500000
0.610351562500000
0.610351562500000
0.605468750000000
0.605468750000000
0.605468750000000
0.600585937500000
0.600585937500000
0.600585937500000
0.600585937500000
0.595703125000000
0.595703125000000
0.595703125000000
0.590820312500000
0.590820312500000
0.585937500000000
0.590820312500000
0.585937500000000
0.585937500000000
0.585937500000000
0.581054687500000
0.581054687500000
0.581054687500000
0.576171875000000
0.581054687500000
0.576171875000000
0.581054687500000
0.576171875000000
0.576171875000000
0.576171875000000
0.571289062500000
0.571289062500000
0.571289062500000
0.571289062500000
0.571289062500000
0.571289062500000
0.571289062500000
0.576171875000000
0.581054687500000
0.585937500000000
0.595703125000000
0.600585937500000
0.605468750000000
0.615234375000000
0.625000000000000
0.629882812500000
0.639648437500000
0.644531250000000
0.654296875000000
0.659179687500000
0.664062500000000
0.668945312500000
0.673828125000000
0.678710937500000
0.683593750000000
0.683593750000000
0.688476562500000
0.688476562500000
0.688476562500000
0.688476562500000
0.693359375000000
0.688476562500000
0.688476562500000
0.688476562500000
0.688476562500000
0.683593750000000
0.683593750000000
0.678710937500000
0.673828125000000
0.673828125000000
0.668945312500000
0.668945312500000
0.668945312500000
0.664062500000000
0.659179687500000
0.659179687500000
0.654296875000000
0.654296875000000
0.649414062500000
0.649414062500000
0.644531250000000
0.639648437500000
0.639648437500000
0.639648437500000
0.629882812500000
0.629882812500000
0.629882812500000
0.625000000000000
0.620117187500000
0.615234375000000
0.620117187500000
0.615234375000000
0.610351562500000
0.610351562500000
0.605468750000000
0.605468750000000
0.600585937500000
0.595703125000000
0.595703125000000
0.590820312500000
0.590820312500000
0.590820312500000
0.585937500000000
0.581054687500000
0.581054687500000
0.576171875000000
0.581054687500000
0.576171875000000
0.576171875000000
0.576171875000000
0.571289062500000
0.571289062500000
0.571289062500000
0.566406250000000
0.566406250000000
0.561523437500000
0.561523437500000
0.561523437500000
0.556640625000000
0.556640625000000
0.561523437500000
0.561523437500000
0.566406250000000
0.571289062500000
0.576171875000000
0.585937500000000
0.590820312500000
0.600585937500000
0.610351562500000
0.615234375000000
0.629882812500000
0.634765625000000
0.644531250000000
0.649414062500000
0.654296875000000
0.664062500000000
0.668945312500000
0.673828125000000
0.683593750000000
0.683593750000000
0.688476562500000
0.693359375000000
0.693359375000000
0.698242187500000
0.698242187500000
0.698242187500000
0.703125000000000
0.698242187500000
0.698242187500000
0.698242187500000
0.693359375000000
0.693359375000000
0.688476562500000
0.688476562500000
0.683593750000000
0.678710937500000
0.678710937500000
0.673828125000000
0.673828125000000
0.673828125000000
0.668945312500000
0.668945312500000
0.668945312500000
0.664062500000000
0.659179687500000
0.659179687500000
0.654296875000000
0.654296875000000
0.649414062500000
0.649414062500000
0.644531250000000
0.644531250000000
0.639648437500000
0.639648437500000
0.634765625000000
0.634765625000000
0.629882812500000
0.629882812500000
0.629882812500000
0.620117187500000
0.615234375000000
0.620117187500000
0.615234375000000
0.615234375000000
0.610351562500000
0.610351562500000
0.605468750000000
0.600585937500000
0.605468750000000
0.600585937500000
0.595703125000000
0.595703125000000
0.595703125000000
0.590820312500000
0.595703125000000
0.585937500000000
0.585937500000000
0.585937500000000
0.581054687500000
0.581054687500000
0.581054687500000
0.576171875000000
0.581054687500000
0.576171875000000
0.576171875000000
0.576171875000000
0.571289062500000
0.571289062500000
0.571289062500000
0.566406250000000
0.566406250000000
0.561523437500000
0.561523437500000
0.561523437500000
0.556640625000000
0.561523437500000
0.561523437500000
0.566406250000000
0.576171875000000
0.581054687500000
0.595703125000000
0.600585937500000
0.615234375000000
0.620117187500000
0.629882812500000
0.634765625000000
0.649414062500000
0.654296875000000
0.664062500000000
0.668945312500000
0.678710937500000
0.683593750000000
0.688476562500000
0.693359375000000
0.698242187500000
0.708007812500000
0.708007812500000
0.712890625000000
0.712890625000000
0.717773437500000
0.717773437500000
0.717773437500000
0.717773437500000
0.717773437500000
0.712890625000000
0.712890625000000
0.712890625000000
0.708007812500000
0.708007812500000
0.708007812500000
0.708007812500000
0.703125000000000
0.703125000000000
0.703125000000000
0.698242187500000
0.698242187500000
0.693359375000000
0.688476562500000
0.688476562500000
0.688476562500000
0.688476562500000
0.683593750000000
0.678710937500000
0.678710937500000
0.673828125000000
0.673828125000000
0.668945312500000
0.668945312500000
0.664062500000000
0.664062500000000
0.654296875000000
0.654296875000000
0.649414062500000
0.649414062500000
0.644531250000000
0.639648437500000
0.639648437500000
0.634765625000000
0.634765625000000
0.629882812500000
0.629882812500000
0.625000000000000
0.620117187500000
0.615234375000000
0.615234375000000
0.610351562500000
0.610351562500000
0.605468750000000
0.605468750000000
0.605468750000000
0.600585937500000
0.595703125000000
0.595703125000000
0.595703125000000
0.595703125000000
0.595703125000000
0.595703125000000
0.600585937500000
0.605468750000000
0.610351562500000
0.615234375000000
0.625000000000000
0.629882812500000
0.644531250000000
0.649414062500000
0.659179687500000
0.664062500000000
0.673828125000000
0.683593750000000
0.688476562500000
0.693359375000000
0.698242187500000
0.708007812500000
0.712890625000000
0.717773437500000
0.722656250000000
0.727539062500000
0.732421875000000
0.732421875000000
0.737304687500000
0.737304687500000
0.742187500000000
0.742187500000000
0.737304687500000
0.737304687500000
0.737304687500000
0.732421875000000
0.732421875000000
0.727539062500000
0.722656250000000
0.722656250000000
0.712890625000000
0.712890625000000
0.708007812500000
0.708007812500000
0.703125000000000
0.698242187500000
0.698242187500000
0.693359375000000
0.688476562500000
0.683593750000000
0.683593750000000
0.678710937500000
0.673828125000000
0.668945312500000
0.668945312500000
0.664062500000000
0.659179687500000
0.654296875000000
0.649414062500000
0.649414062500000
0.644531250000000
0.634765625000000
0.634765625000000
0.629882812500000
0.629882812500000
0.629882812500000
0.620117187500000
0.620117187500000
0.615234375000000
0.610351562500000
0.610351562500000
0.605468750000000
0.605468750000000
0.605468750000000
0.600585937500000
0.595703125000000
0.595703125000000
0.590820312500000
0.590820312500000
0.585937500000000
0.585937500000000
0.581054687500000
0.581054687500000
0.576171875000000
0.576171875000000
0.571289062500000
0.571289062500000
0.571289062500000
0.566406250000000
0.566406250000000
0.566406250000000
0.566406250000000
0.566406250000000
0.561523437500000
0.561523437500000
0.556640625000000
0.556640625000000
0.561523437500000
0.561523437500000
0.566406250000000
0.571289062500000
0.581054687500000
0.590820312500000
0.600585937500000
0.605468750000000
0.620117187500000
0.629882812500000
0.634765625000000
0.644531250000000
0.654296875000000
0.664062500000000
0.668945312500000
0.678710937500000
0.683593750000000
0.693359375000000
0.698242187500000
0.703125000000000
0.708007812500000
0.712890625000000
0.717773437500000
0.717773437500000
0.722656250000000
0.722656250000000
0.722656250000000
0.722656250000000
0.722656250000000
0.722656250000000
0.717773437500000
0.712890625000000
0.712890625000000
0.708007812500000
0.708007812500000
0.703125000000000
0.698242187500000
0.698242187500000
0.693359375000000
0.688476562500000
0.688476562500000
0.683593750000000
0.683593750000000
0.678710937500000
0.673828125000000
0.673828125000000
0.668945312500000
0.664062500000000
0.659179687500000
0.654296875000000
0.654296875000000
0.649414062500000
0.644531250000000
0.639648437500000
0.634765625000000
0.629882812500000
0.629882812500000
0.620117187500000
0.620117187500000
0.615234375000000
0.610351562500000
0.605468750000000
0.600585937500000
0.600585937500000
0.595703125000000
0.590820312500000
0.590820312500000
0.585937500000000
0.581054687500000
0.581054687500000
0.576171875000000
0.576171875000000
0.571289062500000
0.571289062500000
0.571289062500000
0.566406250000000
0.566406250000000
0.566406250000000
0.561523437500000
0.556640625000000
0.561523437500000
0.561523437500000
0.556640625000000
0.556640625000000
0.551757812500000
0.551757812500000
0.551757812500000
0.551757812500000
0.551757812500000
0.551757812500000
0.551757812500000
0.551757812500000
0.556640625000000
0.561523437500000
0.566406250000000
0.571289062500000
0.581054687500000
0.590820312500000
0.600585937500000
0.610351562500000
0.615234375000000
0.625000000000000
0.629882812500000
0.639648437500000
0.649414062500000
0.654296875000000
0.659179687500000
0.664062500000000
0.668945312500000
0.673828125000000
0.678710937500000
0.683593750000000
0.688476562500000
0.688476562500000
0.693359375000000
0.693359375000000
0.693359375000000
0.693359375000000
0.693359375000000
0.688476562500000
0.688476562500000
0.683593750000000
0.683593750000000
0.678710937500000
0.678710937500000
0.673828125000000
0.673828125000000
0.668945312500000
0.668945312500000
0.664062500000000
0.664062500000000
0.659179687500000
0.659179687500000
0.654296875000000
0.654296875000000
0.654296875000000
0.649414062500000
0.649414062500000
0.644531250000000
0.649414062500000
0.644531250000000
0.644531250000000
0.639648437500000
0.639648437500000
0.639648437500000
0.634765625000000
0.634765625000000
0.629882812500000
0.629882812500000
0.629882812500000
0.625000000000000
0.625000000000000
0.620117187500000
0.615234375000000
0.615234375000000
0.615234375000000
0.610351562500000
0.610351562500000
0.610351562500000
0.605468750000000
0.605468750000000
0.600585937500000
0.600585937500000
0.600585937500000
0.595703125000000
0.595703125000000
0.595703125000000
0.595703125000000
0.590820312500000
0.590820312500000
0.590820312500000
0.585937500000000
0.585937500000000
0.581054687500000
0.581054687500000
0.581054687500000
0.576171875000000
0.576171875000000
0.576171875000000
0.571289062500000
0.571289062500000
0.566406250000000
0.566406250000000
0.566406250000000
0.571289062500000
0.571289062500000
0.576171875000000
0.581054687500000
0.590820312500000
0.600585937500000
0.605468750000000
0.615234375000000
0.620117187500000
0.629882812500000
0.634765625000000
0.644531250000000
0.649414062500000
0.659179687500000
0.659179687500000
0.664062500000000
0.668945312500000
0.673828125000000
0.678710937500000
0.678710937500000
0.683593750000000
0.683593750000000
0.688476562500000
0.683593750000000
0.688476562500000
0.688476562500000
0.688476562500000
0.683593750000000
0.678710937500000
0.678710937500000
0.673828125000000
0.668945312500000
0.664062500000000
0.664062500000000
0.659179687500000
0.654296875000000
0.649414062500000
0.644531250000000
0.639648437500000
0.639648437500000
0.634765625000000
0.634765625000000
0.629882812500000
0.629882812500000
0.625000000000000
0.625000000000000
0.625000000000000
0.625000000000000
0.620117187500000
0.615234375000000
0.615234375000000
0.610351562500000
0.610351562500000
0.610351562500000
0.605468750000000
0.605468750000000
0.600585937500000
0.600585937500000
0.600585937500000
0.595703125000000
0.595703125000000
0.590820312500000
0.590820312500000
0.590820312500000
0.585937500000000
0.585937500000000
0.581054687500000
0.581054687500000
0.581054687500000
0.581054687500000
0.576171875000000
0.576171875000000
0.571289062500000
0.571289062500000
0.571289062500000
0.571289062500000
0.571289062500000
0.571289062500000
0.571289062500000
0.571289062500000
0.571289062500000
0.571289062500000
0.571289062500000
0.576171875000000
0.581054687500000
0.581054687500000
0.590820312500000
0.595703125000000
0.600585937500000
0.615234375000000
0.620117187500000
0.625000000000000
0.634765625000000
0.639648437500000
0.649414062500000
0.659179687500000
0.664062500000000
0.668945312500000
0.678710937500000
0.678710937500000
0.683593750000000
0.688476562500000
0.693359375000000
0.698242187500000
0.698242187500000
0.703125000000000
0.703125000000000
0.708007812500000
0.703125000000000
0.703125000000000
0.703125000000000
0.698242187500000
0.693359375000000
0.693359375000000
0.688476562500000
0.683593750000000
0.678710937500000
0.673828125000000
0.673828125000000
0.668945312500000
0.664062500000000
0.664062500000000
0.659179687500000
0.654296875000000
0.654296875000000
0.649414062500000
0.644531250000000
0.639648437500000
0.639648437500000
0.634765625000000
0.629882812500000
0.629882812500000
0.625000000000000
0.620117187500000
0.620117187500000
0.615234375000000
0.610351562500000
0.610351562500000
0.605468750000000
0.605468750000000
0.600585937500000
0.600585937500000
0.595703125000000
0.590820312500000
0.590820312500000
0.590820312500000
0.585937500000000
0.581054687500000
0.581054687500000
0.576171875000000
0.576171875000000
0.576171875000000
0.571289062500000
0.571289062500000
0.566406250000000
0.566406250000000
0.566406250000000
0.561523437500000
0.561523437500000
0.556640625000000
0.556640625000000
0.551757812500000
0.551757812500000
0.551757812500000
0.551757812500000
0.546875000000000
0.546875000000000
0.546875000000000
0.546875000000000
0.541992187500000
0.541992187500000
0.541992187500000
0.541992187500000
0.537109375000000
0.537109375000000
0.537109375000000
0.537109375000000
0.537109375000000
0.541992187500000
0.546875000000000
0.551757812500000
0.556640625000000
0.561523437500000
0.571289062500000
0.576171875000000
0.590820312500000
0.595703125000000
0.600585937500000
0.610351562500000
0.615234375000000
0.625000000000000
0.629882812500000
0.634765625000000
0.639648437500000
0.644531250000000
0.649414062500000
0.654296875000000
0.654296875000000
0.659179687500000
0.659179687500000
0.664062500000000
0.664062500000000
0.664062500000000
0.664062500000000
0.668945312500000
0.664062500000000
0.664062500000000
0.664062500000000
0.659179687500000
0.659179687500000
0.659179687500000
0.654296875000000
0.659179687500000
0.659179687500000
0.654296875000000
0.659179687500000
0.654296875000000
0.659179687500000
0.659179687500000
0.659179687500000
0.659179687500000
0.664062500000000
0.659179687500000
0.659179687500000
0.654296875000000
0.654296875000000
0.649414062500000
0.649414062500000
0.644531250000000
0.634765625000000
0.634765625000000
0.629882812500000
0.625000000000000
0.620117187500000
0.620117187500000
0.615234375000000
0.615234375000000
0.610351562500000
0.610351562500000
0.605468750000000
0.605468750000000
0.610351562500000
0.605468750000000
0.610351562500000
0.610351562500000
0.610351562500000
0.610351562500000
0.610351562500000
0.610351562500000
0.610351562500000
0.610351562500000
0.615234375000000
0.610351562500000
0.610351562500000
0.610351562500000
0.610351562500000
0.605468750000000
0.605468750000000
0.605468750000000
0.605468750000000
0.605468750000000
0.600585937500000
0.600585937500000
0.600585937500000
0.600585937500000
0.600585937500000
0.600585937500000
0.605468750000000
0.605468750000000
0.610351562500000
0.615234375000000
0.615234375000000
0.625000000000000
0.629882812500000
0.634765625000000
0.639648437500000
0.644531250000000
0.649414062500000
0.654296875000000
0.659179687500000
0.664062500000000
0.668945312500000
0.673828125000000
0.678710937500000
0.678710937500000
0.683593750000000
0.693359375000000
0.693359375000000
0.698242187500000
0.698242187500000
0.703125000000000
0.703125000000000
0.708007812500000
0.708007812500000
0.708007812500000
0.708007812500000
0.708007812500000
0.708007812500000
0.708007812500000
0.703125000000000
0.703125000000000
0.703125000000000
0.703125000000000
0.698242187500000
0.693359375000000
0.693359375000000
0.688476562500000
0.688476562500000
0.688476562500000
0.683593750000000
0.683593750000000
0.678710937500000
0.678710937500000
0.678710937500000
0.673828125000000
0.673828125000000
0.673828125000000
0.668945312500000
0.668945312500000
0.668945312500000
0.664062500000000
0.664062500000000
0.659179687500000
0.659179687500000
0.659179687500000
0.654296875000000
0.654296875000000
0.649414062500000
0.649414062500000
0.644531250000000
0.639648437500000
0.639648437500000
0.639648437500000
0.634765625000000
0.634765625000000
0.629882812500000
0.625000000000000
0.625000000000000
0.620117187500000
0.615234375000000
0.610351562500000
0.605468750000000
0.605468750000000
0.595703125000000
0.595703125000000
0.590820312500000
0.585937500000000
0.581054687500000
0.576171875000000
0.571289062500000
0.566406250000000
0.561523437500000
0.556640625000000
0.551757812500000
0.551757812500000
0.551757812500000
0.551757812500000
0.551757812500000
0.556640625000000
0.556640625000000
0.556640625000000
0.561523437500000
0.566406250000000
0.571289062500000
0.571289062500000
0.576171875000000
0.581054687500000
0.585937500000000
0.585937500000000
0.590820312500000
0.595703125000000
0.600585937500000
0.600585937500000
0.600585937500000
0.605468750000000
0.610351562500000
0.610351562500000
0.610351562500000
0.610351562500000
0.610351562500000
0.610351562500000
0.610351562500000
0.605468750000000
0.605468750000000
0.605468750000000
0.600585937500000
0.600585937500000
0.600585937500000
0.595703125000000
0.595703125000000
0.590820312500000
0.590820312500000
0.590820312500000
0.585937500000000
0.585937500000000
0.581054687500000
0.581054687500000
0.576171875000000
0.576171875000000
0.576171875000000
0.576171875000000
0.576171875000000
0.571289062500000
0.571289062500000
0.571289062500000
0.571289062500000
0.571289062500000
0.571289062500000
0.566406250000000
0.566406250000000
0.566406250000000
0.566406250000000
0.566406250000000
0.571289062500000
0.566406250000000
0.571289062500000
0.571289062500000
0.566406250000000
0.571289062500000
0.571289062500000
0.571289062500000
0.571289062500000
0.571289062500000
0.571289062500000
0.571289062500000
0.571289062500000
0.571289062500000
0.566406250000000
0.566406250000000
0.566406250000000
0.566406250000000
0.561523437500000
0.566406250000000
0.561523437500000
0.561523437500000
0.561523437500000
0.561523437500000
0.556640625000000
0.561523437500000
0.556640625000000
0.556640625000000
0.561523437500000
0.561523437500000
0.561523437500000
0.561523437500000
0.571289062500000
0.571289062500000
0.581054687500000
0.585937500000000
0.590820312500000
0.595703125000000
0.600585937500000
0.600585937500000
0.610351562500000
0.610351562500000
0.610351562500000
0.615234375000000
0.615234375000000
0.620117187500000
0.620117187500000
0.620117187500000
0.620117187500000
0.620117187500000
0.620117187500000
0.620117187500000
0.620117187500000
0.615234375000000
0.620117187500000
0.615234375000000
0.610351562500000
0.615234375000000
0.610351562500000
0.610351562500000
0.605468750000000
0.605468750000000
0.605468750000000
0.605468750000000
0.605468750000000
0.605468750000000
0.605468750000000
0.605468750000000
0.605468750000000
0.605468750000000
0.605468750000000
0.605468750000000
0.610351562500000
0.605468750000000
0.605468750000000
0.605468750000000
0.605468750000000
0.605468750000000
0.605468750000000
0.605468750000000
0.605468750000000
0.605468750000000
0.605468750000000
0.605468750000000
0.605468750000000
0.605468750000000
0.605468750000000
0.600585937500000
0.600585937500000
0.600585937500000
0.595703125000000
0.595703125000000
0.590820312500000
0.590820312500000
0.585937500000000
0.585937500000000
0.585937500000000
0.581054687500000
0.581054687500000
0.576171875000000
0.576171875000000
0.571289062500000
0.566406250000000
0.566406250000000
0.561523437500000
0.566406250000000
0.561523437500000
0.566406250000000
0.566406250000000
0.571289062500000
0.571289062500000
0.576171875000000
0.581054687500000
0.585937500000000
0.595703125000000
0.600585937500000
0.605468750000000
0.615234375000000
0.620117187500000
0.629882812500000
0.634765625000000
0.639648437500000
0.644531250000000
0.649414062500000
0.649414062500000
0.654296875000000
0.654296875000000
0.654296875000000
0.654296875000000
0.649414062500000
0.649414062500000
0.649414062500000
0.649414062500000
0.644531250000000
0.639648437500000
0.634765625000000
0.629882812500000
0.629882812500000
0.625000000000000
0.620117187500000
0.620117187500000
0.615234375000000
0.615234375000000
0.610351562500000
0.610351562500000
0.605468750000000
0.605468750000000
0.605468750000000
0.600585937500000
0.600585937500000
0.595703125000000
0.595703125000000
0.590820312500000
0.590820312500000
0.590820312500000
0.590820312500000
0.585937500000000
0.585937500000000
0.585937500000000
0.581054687500000
0.581054687500000
0.581054687500000
0.581054687500000
0.581054687500000
0.576171875000000
0.581054687500000
0.581054687500000
0.576171875000000
0.581054687500000
0.581054687500000
0.581054687500000
0.581054687500000
0.581054687500000
0.581054687500000
0.581054687500000
0.581054687500000
0.581054687500000
0.581054687500000
0.581054687500000
0.581054687500000
0.581054687500000
0.581054687500000
0.576171875000000
0.581054687500000
0.576171875000000
0.576171875000000
0.576171875000000
0.581054687500000
0.581054687500000
0.581054687500000
0.581054687500000
0.585937500000000
0.585937500000000
0.590820312500000
0.595703125000000
0.595703125000000
0.600585937500000
0.600585937500000
0.610351562500000
0.610351562500000
0.615234375000000
0.620117187500000
0.620117187500000
0.620117187500000
0.620117187500000
0.620117187500000
0.625000000000000
0.625000000000000
0.625000000000000
0.620117187500000
0.620117187500000
0.625000000000000
0.620117187500000
0.625000000000000
0.620117187500000
0.620117187500000
0.620117187500000
0.615234375000000
0.615234375000000
0.615234375000000
0.615234375000000
0.610351562500000
0.610351562500000
0.610351562500000
0.610351562500000
0.610351562500000
0.610351562500000
0.610351562500000
0.610351562500000
0.610351562500000
0.610351562500000
0.610351562500000
0.610351562500000
0.610351562500000
0.605468750000000
0.605468750000000
0.600585937500000
0.595703125000000
0.595703125000000
0.590820312500000
0.590820312500000
0.585937500000000
0.585937500000000
0.581054687500000
0.576171875000000
0.576171875000000
0.571289062500000
0.566406250000000
0.566406250000000
0.561523437500000
0.561523437500000
0.556640625000000
0.556640625000000
0.551757812500000
0.551757812500000
0.551757812500000
0.546875000000000
0.546875000000000
0.546875000000000
0.541992187500000
0.541992187500000
0.541992187500000
0.541992187500000
0.541992187500000
0.551757812500000
0.551757812500000
0.556640625000000
0.561523437500000
0.566406250000000
0.571289062500000
0.576171875000000
0.581054687500000
0.585937500000000
0.585937500000000
0.590820312500000
0.595703125000000
0.595703125000000
0.600585937500000
0.600585937500000
0.605468750000000
0.610351562500000
0.610351562500000
0.615234375000000
0.615234375000000
0.620117187500000
0.620117187500000
0.620117187500000
0.625000000000000
0.625000000000000
0.620117187500000
0.615234375000000
0.620117187500000
0.615234375000000
0.615234375000000
0.610351562500000
0.610351562500000
0.610351562500000
0.605468750000000
0.605468750000000
0.605468750000000
0.600585937500000
0.600585937500000
0.600585937500000
0.600585937500000
0.600585937500000
0.595703125000000
0.600585937500000
0.595703125000000
0.595703125000000
0.595703125000000
0.595703125000000
0.595703125000000
0.590820312500000
0.585937500000000
0.590820312500000
0.585937500000000
0.585937500000000
0.585937500000000
0.581054687500000
0.581054687500000
0.581054687500000
0.576171875000000
0.576171875000000
0.571289062500000
0.571289062500000
0.571289062500000
0.571289062500000
0.566406250000000
0.566406250000000
0.561523437500000
0.561523437500000
0.561523437500000
0.561523437500000
0.561523437500000
0.556640625000000
0.561523437500000
0.561523437500000
0.566406250000000
0.571289062500000
0.576171875000000
0.581054687500000
0.590820312500000
0.590820312500000
0.600585937500000
0.605468750000000
0.615234375000000
0.615234375000000
0.625000000000000
0.629882812500000
0.629882812500000
0.639648437500000
0.644531250000000
0.644531250000000
0.649414062500000
0.649414062500000
0.654296875000000
0.654296875000000
0.659179687500000
0.659179687500000
0.659179687500000
0.659179687500000
0.659179687500000
0.659179687500000
0.659179687500000
0.654296875000000
0.654296875000000
0.649414062500000
0.649414062500000
0.644531250000000
0.644531250000000
0.639648437500000
0.639648437500000
0.634765625000000
0.634765625000000
0.629882812500000
0.629882812500000
0.629882812500000
0.629882812500000
0.629882812500000
0.625000000000000
0.620117187500000
0.620117187500000
0.620117187500000
0.620117187500000
0.620117187500000
0.615234375000000
0.615234375000000
0.615234375000000
0.610351562500000
0.610351562500000
0.610351562500000
0.605468750000000
0.605468750000000
0.600585937500000
0.600585937500000
0.595703125000000
0.595703125000000
0.595703125000000
0.590820312500000
0.590820312500000
0.585937500000000
0.585937500000000
0.585937500000000
0.585937500000000
0.585937500000000
0.581054687500000
0.581054687500000
0.581054687500000
0.581054687500000
0.576171875000000
0.576171875000000
0.576171875000000
0.576171875000000
0.576171875000000
0.581054687500000
0.581054687500000
0.585937500000000
0.590820312500000
0.595703125000000
0.605468750000000
0.615234375000000
0.620117187500000
0.629882812500000
0.629882812500000
0.639648437500000
0.644531250000000
0.649414062500000
0.649414062500000
0.659179687500000
0.664062500000000
0.664062500000000
0.668945312500000
0.673828125000000
0.673828125000000
0.678710937500000
0.678710937500000
0.678710937500000
0.678710937500000
0.683593750000000
0.683593750000000
0.683593750000000
0.683593750000000
0.678710937500000
0.678710937500000
0.673828125000000
0.673828125000000
0.673828125000000
0.668945312500000
0.664062500000000
0.659179687500000
0.659179687500000
0.654296875000000
0.654296875000000
0.649414062500000
0.649414062500000
0.644531250000000
0.644531250000000
0.639648437500000
0.639648437500000
0.634765625000000
0.634765625000000
0.634765625000000
0.629882812500000
0.629882812500000
0.625000000000000
0.625000000000000
0.620117187500000
0.620117187500000
0.615234375000000
0.610351562500000
0.610351562500000
0.610351562500000
0.605468750000000
0.605468750000000
0.600585937500000
0.595703125000000
0.595703125000000
0.590820312500000
0.590820312500000
0.585937500000000
0.585937500000000
0.581054687500000
0.581054687500000
0.581054687500000
0.581054687500000
0.576171875000000
0.576171875000000
0.571289062500000
0.571289062500000
0.576171875000000
0.576171875000000
0.571289062500000
0.571289062500000
0.571289062500000
0.571289062500000
0.571289062500000
0.571289062500000
0.576171875000000
0.581054687500000
0.585937500000000
0.595703125000000
0.600585937500000
0.605468750000000
0.615234375000000
0.620117187500000
0.634765625000000
0.639648437500000
0.644531250000000
0.649414062500000
0.659179687500000
0.659179687500000
0.668945312500000
0.668945312500000
0.673828125000000
0.678710937500000
0.683593750000000
0.683593750000000
0.683593750000000
0.688476562500000
0.688476562500000
0.688476562500000
0.688476562500000
0.683593750000000
0.683593750000000
0.683593750000000
0.678710937500000
0.673828125000000
0.673828125000000
0.668945312500000
0.668945312500000
0.664062500000000
0.664062500000000
0.659179687500000
0.654296875000000
0.654296875000000
0.654296875000000
0.649414062500000
0.649414062500000
0.644531250000000
0.639648437500000
0.639648437500000
0.634765625000000
0.629882812500000
0.629882812500000
0.629882812500000
0.625000000000000
0.620117187500000
0.615234375000000
0.620117187500000
0.615234375000000
0.610351562500000
0.615234375000000
0.605468750000000
0.605468750000000
0.605468750000000
0.595703125000000
0.595703125000000
0.590820312500000
0.590820312500000
0.590820312500000
0.585937500000000
0.585937500000000
0.585937500000000
0.581054687500000
0.581054687500000
0.581054687500000
0.576171875000000
0.576171875000000
0.571289062500000
0.571289062500000
0.571289062500000
0.571289062500000
0.566406250000000
0.561523437500000
0.556640625000000
0.556640625000000
0.556640625000000
0.556640625000000
0.556640625000000
0.556640625000000
0.561523437500000
0.566406250000000
0.571289062500000
0.581054687500000
0.581054687500000
0.595703125000000
0.600585937500000
0.605468750000000
0.615234375000000
0.620117187500000
0.629882812500000
0.634765625000000
0.639648437500000
0.644531250000000
0.649414062500000
0.654296875000000
0.659179687500000
0.659179687500000
0.664062500000000
0.664062500000000
0.664062500000000
0.668945312500000
0.668945312500000
0.668945312500000
0.668945312500000
0.668945312500000
0.664062500000000
0.664062500000000
0.659179687500000
0.659179687500000
0.659179687500000
0.654296875000000
0.649414062500000
0.644531250000000
0.644531250000000
0.644531250000000
0.639648437500000
0.634765625000000
0.634765625000000
0.629882812500000
0.629882812500000
0.629882812500000
0.625000000000000
0.620117187500000
0.620117187500000
0.620117187500000
0.615234375000000
0.610351562500000
0.610351562500000
0.605468750000000
0.605468750000000
0.605468750000000
0.600585937500000
0.600585937500000
0.595703125000000
0.595703125000000
0.590820312500000
0.590820312500000
0.585937500000000
0.585937500000000
0.585937500000000
0.581054687500000
0.576171875000000
0.576171875000000
0.576171875000000
0.576171875000000
0.571289062500000
0.571289062500000
0.566406250000000
0.566406250000000
0.561523437500000
0.561523437500000
0.561523437500000
0.556640625000000
0.556640625000000
0.551757812500000
0.551757812500000
0.551757812500000
0.551757812500000
0.551757812500000
0.551757812500000
0.551757812500000
0.556640625000000
0.561523437500000
0.561523437500000
0.571289062500000
0.576171875000000
0.585937500000000
0.595703125000000
0.600585937500000
0.610351562500000
0.620117187500000
0.625000000000000
0.629882812500000
0.639648437500000
0.644531250000000
0.649414062500000
0.654296875000000
0.659179687500000
0.664062500000000
0.664062500000000
0.668945312500000
0.668945312500000
0.673828125000000
0.673828125000000
0.673828125000000
0.673828125000000
0.668945312500000
0.668945312500000
0.668945312500000
0.668945312500000
0.664062500000000
0.659179687500000
0.654296875000000
0.654296875000000
0.649414062500000
0.649414062500000
0.644531250000000
0.644531250000000
0.639648437500000
0.639648437500000
0.634765625000000
0.634765625000000
0.634765625000000
0.629882812500000
0.629882812500000
0.625000000000000
0.625000000000000
0.620117187500000
0.615234375000000
0.615234375000000
0.610351562500000
0.610351562500000
0.605468750000000
0.605468750000000
0.605468750000000
