0.595703125000000
0.615234375000000
0.629882812500000
0.639648437500000
0.654296875000000
0.659179687500000
0.654296875000000
0.659179687500000
0.654296875000000
0.649414062500000
0.639648437500000
0.629882812500000
0.620117187500000
0.610351562500000
0.600585937500000
0.590820312500000
0.581054687500000
0.571289062500000
0.561523437500000
0.556640625000000
0.541992187500000
0.541992187500000
0.527343750000000
0.522460937500000
0.512695312500000
0.502929687500000
0.493164062500000
0.483398437500000
0.473632812500000
0.468750000000000
0.463867187500000
0.454101562500000
0.444335937500000
0.434570312500000
0.429687500000000
0.419921875000000
0.415039062500000
0.405273437500000
0.395507812500000
0.390625000000000
0.385742187500000
0.375976562500000
0.375976562500000
0.366210937500000
0.361328125000000
0.356445312500000
0.351562500000000
0.351562500000000
0.346679687500000
0.346679687500000
0.341796875000000
0.336914062500000
0.332031250000000
0.332031250000000
0.327148437500000
0.322265625000000
0.317382812500000
0.317382812500000
0.317382812500000
0.312500000000000
0.317382812500000
0.317382812500000
0.327148437500000
0.351562500000000
0.375976562500000
0.405273437500000
0.444335937500000
0.473632812500000
0.502929687500000
0.527343750000000
0.551757812500000
0.571289062500000
0.585937500000000
0.605468750000000
0.610351562500000
0.620117187500000
0.629882812500000
0.629882812500000
0.629882812500000
0.625000000000000
0.620117187500000
0.610351562500000
0.605468750000000
0.595703125000000
0.581054687500000
0.571289062500000
0.556640625000000
0.546875000000000
0.532226562500000
0.522460937500000
0.512695312500000
0.502929687500000
0.493164062500000
0.483398437500000
0.473632812500000
0.468750000000000
0.458984375000000
0.454101562500000
0.444335937500000
0.434570312500000
0.429687500000000
0.424804687500000
0.415039062500000
0.410156250000000
0.400390625000000
0.395507812500000
0.385742187500000
0.380859375000000
0.380859375000000
0.371093750000000
0.371093750000000
0.366210937500000
0.361328125000000
0.356445312500000
0.356445312500000
0.351562500000000
0.346679687500000
0.346679687500000
0.341796875000000
0.341796875000000
0.336914062500000
0.332031250000000
0.332031250000000
0.327148437500000
0.327148437500000
0.327148437500000
0.322265625000000
0.322265625000000
0.317382812500000
0.317382812500000
0.317382812500000
0.317382812500000
0.317382812500000
0.317382812500000
0.322265625000000
0.327148437500000
0.346679687500000
0.371093750000000
0.405273437500000
0.434570312500000
0.473632812500000
0.502929687500000
0.527343750000000
0.551757812500000
0.571289062500000
0.585937500000000
0.605468750000000
0.615234375000000
0.620117187500000
0.625000000000000
0.629882812500000
0.625000000000000
0.620117187500000
0.615234375000000
0.605468750000000
0.595703125000000
0.585937500000000
0.571289062500000
0.561523437500000
0.556640625000000
0.541992187500000
0.537109375000000
0.527343750000000
0.517578125000000
0.507812500000000
0.498046875000000
0.488281250000000
0.483398437500000
0.473632812500000
0.463867187500000
0.458984375000000
0.449218750000000
0.444335937500000
0.434570312500000
0.424804687500000
0.419921875000000
0.415039062500000
0.405273437500000
0.405273437500000
0.395507812500000
0.390625000000000
0.385742187500000
0.375976562500000
0.371093750000000
0.366210937500000
0.366210937500000
0.361328125000000
0.356445312500000
0.356445312500000
0.351562500000000
0.346679687500000
0.346679687500000
0.341796875000000
0.341796875000000
0.336914062500000
0.332031250000000
0.332031250000000
0.332031250000000
0.332031250000000
0.327148437500000
0.327148437500000
0.327148437500000
0.322265625000000
0.322265625000000
0.322265625000000
0.327148437500000
0.341796875000000
0.366210937500000
0.395507812500000
0.424804687500000
0.454101562500000
0.488281250000000
0.517578125000000
0.541992187500000
0.566406250000000
0.585937500000000
0.600585937500000
0.615234375000000
0.625000000000000
0.629882812500000
0.629882812500000
0.629882812500000
0.629882812500000
0.625000000000000
0.615234375000000
0.610351562500000
0.600585937500000
0.585937500000000
0.576171875000000
0.566406250000000
0.551757812500000
0.541992187500000
0.532226562500000
0.517578125000000
0.507812500000000
0.498046875000000
0.488281250000000
0.478515625000000
0.468750000000000
0.463867187500000
0.449218750000000
0.444335937500000
0.434570312500000
0.424804687500000
0.419921875000000
0.415039062500000
0.405273437500000
0.400390625000000
0.395507812500000
0.390625000000000
0.385742187500000
0.375976562500000
0.375976562500000
0.371093750000000
0.366210937500000
0.361328125000000
0.356445312500000
0.356445312500000
0.351562500000000
0.346679687500000
0.341796875000000
0.341796875000000
0.336914062500000
0.336914062500000
0.332031250000000
0.332031250000000
0.332031250000000
0.327148437500000
0.327148437500000
0.327148437500000
0.317382812500000
0.322265625000000
0.317382812500000
0.317382812500000
0.327148437500000
0.336914062500000
0.366210937500000
0.395507812500000
0.424804687500000
0.463867187500000
0.493164062500000
0.527343750000000
0.551757812500000
0.576171875000000
0.595703125000000
0.620117187500000
0.629882812500000
0.644531250000000
0.654296875000000
0.659179687500000
0.668945312500000
0.664062500000000
0.659179687500000
0.659179687500000
0.649414062500000
0.639648437500000
0.629882812500000
0.615234375000000
0.605468750000000
0.595703125000000
0.585937500000000
0.571289062500000
0.561523437500000
0.551757812500000
0.541992187500000
0.527343750000000
0.522460937500000
0.507812500000000
0.502929687500000
0.488281250000000
0.478515625000000
0.473632812500000
0.463867187500000
0.454101562500000
0.444335937500000
0.434570312500000
0.429687500000000
0.419921875000000
0.410156250000000
0.405273437500000
0.395507812500000
0.390625000000000
0.385742187500000
0.375976562500000
0.375976562500000
0.366210937500000
0.366210937500000
0.361328125000000
0.351562500000000
0.351562500000000
0.346679687500000
0.346679687500000
0.341796875000000
0.336914062500000
0.336914062500000
0.327148437500000
0.327148437500000
0.322265625000000
0.327148437500000
0.322265625000000
0.322265625000000
0.317382812500000
0.317382812500000
0.317382812500000
0.317382812500000
0.322265625000000
0.336914062500000
0.361328125000000
0.385742187500000
0.424804687500000
0.458984375000000
0.493164062500000
0.522460937500000
0.551757812500000
0.576171875000000
0.595703125000000
0.615234375000000
0.634765625000000
0.644531250000000
0.659179687500000
0.664062500000000
0.668945312500000
0.668945312500000
0.664062500000000
0.664062500000000
0.649414062500000
0.644531250000000
0.634765625000000
0.620117187500000
0.605468750000000
0.595703125000000
0.581054687500000
0.571289062500000
0.556640625000000
0.546875000000000
0.537109375000000
0.527343750000000
0.517578125000000
0.507812500000000
0.493164062500000
0.488281250000000
0.473632812500000
0.463867187500000
0.458984375000000
0.449218750000000
0.439453125000000
0.429687500000000
0.419921875000000
0.410156250000000
0.405273437500000
0.395507812500000
0.390625000000000
0.385742187500000
0.380859375000000
0.375976562500000
0.366210937500000
0.366210937500000
0.356445312500000
0.356445312500000
0.346679687500000
0.346679687500000
0.341796875000000
0.336914062500000
0.336914062500000
0.332031250000000
0.332031250000000
0.327148437500000
0.327148437500000
0.327148437500000
0.322265625000000
0.322265625000000
0.322265625000000
0.322265625000000
0.317382812500000
0.317382812500000
0.317382812500000
0.317382812500000
0.317382812500000
0.317382812500000
0.327148437500000
0.351562500000000
0.375976562500000
0.405273437500000
0.444335937500000
0.478515625000000
0.507812500000000
0.541992187500000
0.561523437500000
0.590820312500000
0.605468750000000
0.625000000000000
0.634765625000000
0.644531250000000
0.654296875000000
0.659179687500000
0.659179687500000
0.659179687500000
0.654296875000000
0.644531250000000
0.634765625000000
0.629882812500000
0.615234375000000
0.600585937500000
0.585937500000000
0.576171875000000
0.561523437500000
0.551757812500000
0.541992187500000
0.527343750000000
0.517578125000000
0.507812500000000
0.493164062500000
0.483398437500000
0.473632812500000
0.463867187500000
0.458984375000000
0.449218750000000
0.439453125000000
0.434570312500000
0.424804687500000
0.415039062500000
0.410156250000000
0.400390625000000
0.395507812500000
0.385742187500000
0.380859375000000
0.375976562500000
0.371093750000000
0.366210937500000
0.361328125000000
0.356445312500000
0.351562500000000
0.346679687500000
0.341796875000000
0.336914062500000
0.336914062500000
0.332031250000000
0.332031250000000
0.327148437500000
0.327148437500000
0.322265625000000
0.322265625000000
0.322265625000000
0.317382812500000
0.312500000000000
0.312500000000000
0.312500000000000
0.307617187500000
0.307617187500000
0.307617187500000
0.307617187500000
0.307617187500000
0.312500000000000
0.322265625000000
0.336914062500000
0.366210937500000
0.395507812500000
0.434570312500000
0.468750000000000
0.498046875000000
0.532226562500000
0.556640625000000
0.581054687500000
0.600585937500000
0.615234375000000
0.634765625000000
0.644531250000000
0.649414062500000
0.654296875000000
0.659179687500000
0.654296875000000
0.654296875000000
0.644531250000000
0.634765625000000
0.629882812500000
0.610351562500000
0.605468750000000
0.590820312500000
0.576171875000000
0.566406250000000
0.556640625000000
0.541992187500000
0.537109375000000
0.522460937500000
0.512695312500000
0.498046875000000
0.488281250000000
0.478515625000000
0.468750000000000
0.458984375000000
0.454101562500000
0.444335937500000
0.439453125000000
0.429687500000000
0.419921875000000
0.415039062500000
0.405273437500000
0.400390625000000
0.395507812500000
0.390625000000000
0.385742187500000
0.380859375000000
0.371093750000000
0.366210937500000
0.361328125000000
0.361328125000000
0.356445312500000
0.351562500000000
0.346679687500000
0.341796875000000
0.336914062500000
0.332031250000000
0.327148437500000
0.327148437500000
0.327148437500000
0.322265625000000
0.327148437500000
0.322265625000000
0.317382812500000
0.322265625000000
0.317382812500000
0.317382812500000
0.317382812500000
0.312500000000000
0.317382812500000
0.317382812500000
0.312500000000000
0.317382812500000
0.322265625000000
0.341796875000000
0.366210937500000
0.390625000000000
0.424804687500000
0.458984375000000
0.493164062500000
0.522460937500000
0.546875000000000
0.571289062500000
0.595703125000000
0.610351562500000
0.625000000000000
0.634765625000000
0.639648437500000
0.649414062500000
0.649414062500000
0.649414062500000
0.644531250000000
0.634765625000000
0.629882812500000
0.620117187500000
0.605468750000000
0.595703125000000
0.581054687500000
0.571289062500000
0.561523437500000
0.546875000000000
0.537109375000000
0.527343750000000
0.517578125000000
0.502929687500000
0.493164062500000
0.483398437500000
0.473632812500000
0.468750000000000
0.458984375000000
0.449218750000000
0.439453125000000
0.429687500000000
0.424804687500000
0.419921875000000
0.410156250000000
0.405273437500000
0.395507812500000
0.390625000000000
0.380859375000000
0.375976562500000
0.371093750000000
0.366210937500000
0.366210937500000
0.361328125000000
0.361328125000000
0.351562500000000
0.341796875000000
0.341796875000000
0.336914062500000
0.336914062500000
0.336914062500000
0.332031250000000
0.332031250000000
0.327148437500000
0.322265625000000
0.327148437500000
0.322265625000000
0.322265625000000
0.322265625000000
0.317382812500000
0.317382812500000
0.317382812500000
0.317382812500000
0.317382812500000
0.317382812500000
0.317382812500000
0.322265625000000
0.332031250000000
0.351562500000000
0.375976562500000
0.405273437500000
0.444335937500000
0.473632812500000
0.507812500000000
0.537109375000000
0.561523437500000
0.581054687500000
0.600585937500000
0.620117187500000
0.629882812500000
0.634765625000000
0.639648437500000
0.639648437500000
0.639648437500000
0.634765625000000
0.629882812500000
0.620117187500000
0.610351562500000
0.600585937500000
0.585937500000000
0.576171875000000
0.561523437500000
0.546875000000000
0.541992187500000
0.527343750000000
0.517578125000000
0.507812500000000
0.498046875000000
0.488281250000000
0.478515625000000
0.473632812500000
0.463867187500000
0.454101562500000
0.449218750000000
0.439453125000000
0.429687500000000
0.424804687500000
0.415039062500000
0.410156250000000
0.400390625000000
0.395507812500000
0.390625000000000
0.385742187500000
0.380859375000000
0.371093750000000
0.366210937500000
0.361328125000000
0.356445312500000
0.356445312500000
0.356445312500000
0.346679687500000
0.346679687500000
0.341796875000000
0.336914062500000
0.336914062500000
0.332031250000000
0.332031250000000
0.327148437500000
0.327148437500000
0.327148437500000
0.327148437500000
0.322265625000000
0.322265625000000
0.322265625000000
0.322265625000000
0.322265625000000
0.317382812500000
0.317382812500000
0.317382812500000
0.317382812500000
0.327148437500000
0.336914062500000
0.361328125000000
0.385742187500000
0.415039062500000
0.449218750000000
0.483398437500000
0.517578125000000
0.541992187500000
0.566406250000000
0.585937500000000
0.605468750000000
0.620117187500000
0.629882812500000
0.639648437500000
0.639648437500000
0.639648437500000
0.639648437500000
0.639648437500000
0.629882812500000
0.625000000000000
0.615234375000000
0.605468750000000
0.595703125000000
0.585937500000000
0.576171875000000
0.566406250000000
0.556640625000000
0.541992187500000
0.537109375000000
0.527343750000000
0.517578125000000
0.507812500000000
0.498046875000000
0.488281250000000
0.483398437500000
0.473632812500000
0.463867187500000
0.458984375000000
0.449218750000000
0.439453125000000
0.434570312500000
0.424804687500000
0.424804687500000
0.415039062500000
0.410156250000000
0.405273437500000
0.395507812500000
0.395507812500000
0.385742187500000
0.380859375000000
0.375976562500000
0.371093750000000
0.371093750000000
0.366210937500000
0.361328125000000
0.361328125000000
0.356445312500000
0.351562500000000
0.351562500000000
0.346679687500000
0.346679687500000
0.346679687500000
0.341796875000000
0.341796875000000
0.336914062500000
0.336914062500000
0.336914062500000
0.332031250000000
0.332031250000000
0.332031250000000
0.327148437500000
0.332031250000000
0.336914062500000
0.346679687500000
0.366210937500000
0.385742187500000
0.415039062500000
0.449218750000000
0.483398437500000
0.512695312500000
0.541992187500000
0.566406250000000
0.585937500000000
0.605468750000000
0.620117187500000
0.629882812500000
0.639648437500000
0.644531250000000
0.639648437500000
0.639648437500000
0.634765625000000
0.629882812500000
0.620117187500000
0.610351562500000
0.600585937500000
0.590820312500000
0.581054687500000
0.566406250000000
0.556640625000000
0.546875000000000
0.532226562500000
0.522460937500000
0.512695312500000
0.502929687500000
0.493164062500000
0.483398437500000
0.473632812500000
0.463867187500000
0.454101562500000
0.454101562500000
0.439453125000000
0.434570312500000
0.424804687500000
0.419921875000000
0.415039062500000
0.405273437500000
0.405273437500000
0.395507812500000
0.385742187500000
0.385742187500000
0.375976562500000
0.371093750000000
0.371093750000000
0.366210937500000
0.361328125000000
0.356445312500000
0.351562500000000
0.351562500000000
0.346679687500000
0.341796875000000
0.341796875000000
0.336914062500000
0.336914062500000
0.332031250000000
0.332031250000000
0.332031250000000
0.327148437500000
0.327148437500000
0.327148437500000
0.327148437500000
0.322265625000000
0.322265625000000
0.317382812500000
0.322265625000000
0.322265625000000
0.332031250000000
0.341796875000000
0.356445312500000
0.380859375000000
0.415039062500000
0.449218750000000
0.483398437500000
0.512695312500000
0.541992187500000
0.566406250000000
0.585937500000000
0.605468750000000
0.615234375000000
0.629882812500000
0.634765625000000
0.639648437500000
0.634765625000000
0.634765625000000
0.629882812500000
0.625000000000000
0.615234375000000
0.605468750000000
0.595703125000000
0.585937500000000
0.576171875000000
0.566406250000000
0.551757812500000
0.537109375000000
0.527343750000000
0.517578125000000
0.512695312500000
0.498046875000000
0.488281250000000
0.478515625000000
0.473632812500000
0.468750000000000
0.458984375000000
0.449218750000000
0.444335937500000
0.434570312500000
0.424804687500000
0.419921875000000
0.410156250000000
0.405273437500000
0.400390625000000
0.395507812500000
0.390625000000000
0.380859375000000
0.380859375000000
0.375976562500000
0.371093750000000
0.366210937500000
0.361328125000000
0.356445312500000
0.356445312500000
0.351562500000000
0.351562500000000
0.346679687500000
0.341796875000000
0.341796875000000
0.336914062500000
0.336914062500000
0.332031250000000
0.327148437500000
0.327148437500000
0.327148437500000
0.327148437500000
0.322265625000000
0.322265625000000
0.322265625000000
0.322265625000000
0.322265625000000
0.327148437500000
0.336914062500000
0.351562500000000
0.371093750000000
0.405273437500000
0.434570312500000
0.468750000000000
0.493164062500000
0.527343750000000
0.551757812500000
0.576171875000000
0.590820312500000
0.605468750000000
0.615234375000000
0.625000000000000
0.629882812500000
0.629882812500000
0.629882812500000
0.625000000000000
0.615234375000000
0.610351562500000
0.600585937500000
0.585937500000000
0.576171875000000
0.566406250000000
0.556640625000000
0.541992187500000
0.537109375000000
0.527343750000000
0.512695312500000
0.502929687500000
0.493164062500000
0.483398437500000
0.478515625000000
0.468750000000000
0.458984375000000
0.454101562500000
0.444335937500000
0.439453125000000
0.434570312500000
0.424804687500000
0.419921875000000
0.415039062500000
0.410156250000000
0.405273437500000
0.395507812500000
0.395507812500000
0.385742187500000
0.385742187500000
0.380859375000000
0.375976562500000
0.371093750000000
0.366210937500000
0.366210937500000
0.361328125000000
0.356445312500000
0.356445312500000
0.356445312500000
0.351562500000000
0.351562500000000
0.346679687500000
0.351562500000000
0.341796875000000
0.346679687500000
0.341796875000000
0.341796875000000
0.341796875000000
0.341796875000000
0.336914062500000
0.336914062500000
0.336914062500000
0.336914062500000
0.341796875000000
0.351562500000000
0.371093750000000
0.390625000000000
0.424804687500000
0.449218750000000
0.483398437500000
0.512695312500000
0.537109375000000
0.561523437500000
0.581054687500000
0.595703125000000
0.615234375000000
0.625000000000000
0.629882812500000
0.629882812500000
0.629882812500000
0.629882812500000
0.620117187500000
0.610351562500000
0.600585937500000
0.590820312500000
0.581054687500000
0.571289062500000
0.556640625000000
0.551757812500000
0.537109375000000
0.527343750000000
0.517578125000000
0.502929687500000
0.493164062500000
0.483398437500000
0.473632812500000
0.468750000000000
0.458984375000000
0.454101562500000
0.449218750000000
0.439453125000000
0.434570312500000
0.424804687500000
0.419921875000000
0.415039062500000
0.405273437500000
0.405273437500000
0.395507812500000
0.395507812500000
0.390625000000000
0.385742187500000
0.380859375000000
0.375976562500000
0.371093750000000
0.371093750000000
0.366210937500000
0.366210937500000
0.361328125000000
0.356445312500000
0.356445312500000
0.356445312500000
0.351562500000000
0.351562500000000
0.346679687500000
0.346679687500000
0.346679687500000
0.346679687500000
0.346679687500000
0.346679687500000
0.341796875000000
0.341796875000000
0.336914062500000
0.341796875000000
0.341796875000000
0.346679687500000
0.361328125000000
0.375976562500000
0.405273437500000
0.429687500000000
0.463867187500000
0.493164062500000
0.527343750000000
0.551757812500000
0.576171875000000
0.595703125000000
0.615234375000000
0.629882812500000
0.639648437500000
0.644531250000000
0.649414062500000
0.649414062500000
0.649414062500000
0.644531250000000
0.634765625000000
0.629882812500000
0.615234375000000
0.605468750000000
0.595703125000000
0.581054687500000
0.566406250000000
0.556640625000000
0.546875000000000
0.537109375000000
0.522460937500000
0.512695312500000
0.502929687500000
0.493164062500000
0.478515625000000
0.473632812500000
0.463867187500000
0.458984375000000
0.449218750000000
0.444335937500000
0.439453125000000
0.429687500000000
0.424804687500000
0.419921875000000
0.415039062500000
0.405273437500000
0.400390625000000
0.395507812500000
0.390625000000000
0.385742187500000
0.385742187500000
0.380859375000000
0.375976562500000
0.375976562500000
0.371093750000000
0.371093750000000
0.366210937500000
0.361328125000000
0.361328125000000
0.356445312500000
0.356445312500000
0.351562500000000
0.351562500000000
0.346679687500000
0.351562500000000
0.346679687500000
0.346679687500000
0.346679687500000
0.346679687500000
0.341796875000000
0.346679687500000
0.341796875000000
0.346679687500000
0.346679687500000
0.351562500000000
0.366210937500000
0.385742187500000
0.410156250000000
0.439453125000000
0.473632812500000
0.502929687500000
0.532226562500000
0.556640625000000
0.581054687500000
0.600585937500000
0.620117187500000
0.634765625000000
0.639648437500000
0.644531250000000
0.649414062500000
0.649414062500000
0.649414062500000
0.639648437500000
0.634765625000000
0.629882812500000
0.615234375000000
0.605468750000000
0.590820312500000
0.581054687500000
0.571289062500000
0.556640625000000
0.541992187500000
0.532226562500000
0.522460937500000
0.512695312500000
0.498046875000000
0.488281250000000
0.478515625000000
0.473632812500000
0.463867187500000
0.454101562500000
0.444335937500000
0.439453125000000
0.429687500000000
0.424804687500000
0.419921875000000
0.415039062500000
0.410156250000000
0.405273437500000
0.400390625000000
0.390625000000000
0.385742187500000
0.380859375000000
0.375976562500000
0.375976562500000
0.371093750000000
0.366210937500000
0.361328125000000
0.361328125000000
0.356445312500000
0.351562500000000
0.351562500000000
0.346679687500000
0.341796875000000
0.346679687500000
0.341796875000000
0.341796875000000
0.341796875000000
0.336914062500000
0.336914062500000
0.332031250000000
0.336914062500000
0.336914062500000
0.341796875000000
0.356445312500000
0.380859375000000
0.400390625000000
0.434570312500000
0.468750000000000
0.502929687500000
0.532226562500000
0.556640625000000
0.581054687500000
0.605468750000000
0.615234375000000
0.629882812500000
0.644531250000000
0.654296875000000
0.659179687500000
0.654296875000000
0.659179687500000
0.649414062500000
0.649414062500000
0.639648437500000
0.629882812500000
0.620117187500000
0.605468750000000
0.595703125000000
0.585937500000000
0.571289062500000
0.561523437500000
0.551757812500000
0.541992187500000
0.527343750000000
0.517578125000000
0.507812500000000
0.498046875000000
0.488281250000000
0.478515625000000
0.473632812500000
0.468750000000000
0.454101562500000
0.449218750000000
0.439453125000000
0.434570312500000
0.424804687500000
0.419921875000000
0.415039062500000
0.405273437500000
0.400390625000000
0.395507812500000
0.390625000000000
0.385742187500000
0.385742187500000
0.380859375000000
0.375976562500000
0.371093750000000
0.366210937500000
0.361328125000000
0.361328125000000
0.356445312500000
0.351562500000000
0.351562500000000
0.346679687500000
0.341796875000000
0.341796875000000
0.341796875000000
0.336914062500000
0.336914062500000
0.336914062500000
0.336914062500000
0.336914062500000
0.332031250000000
0.341796875000000
0.346679687500000
0.366210937500000
0.390625000000000
0.415039062500000
0.454101562500000
0.488281250000000
0.517578125000000
0.546875000000000
0.571289062500000
0.595703125000000
0.615234375000000
0.634765625000000
0.649414062500000
0.659179687500000
0.664062500000000
0.668945312500000
0.673828125000000
0.673828125000000
0.668945312500000
0.659179687500000
0.654296875000000
0.644531250000000
0.629882812500000
0.620117187500000
0.605468750000000
0.590820312500000
0.585937500000000
0.571289062500000
0.556640625000000
0.546875000000000
0.537109375000000
0.527343750000000
0.512695312500000
0.507812500000000
0.493164062500000
0.483398437500000
0.473632812500000
0.463867187500000
0.454101562500000
0.449218750000000
0.439453125000000
0.434570312500000
0.424804687500000
0.415039062500000
0.410156250000000
0.405273437500000
0.395507812500000
0.390625000000000
0.385742187500000
0.380859375000000
0.375976562500000
0.371093750000000
0.366210937500000
0.366210937500000
0.356445312500000
0.356445312500000
0.356445312500000
0.346679687500000
0.346679687500000
0.346679687500000
0.341796875000000
0.341796875000000
0.336914062500000
0.336914062500000
0.332031250000000
0.327148437500000
0.327148437500000
0.327148437500000
0.322265625000000
0.327148437500000
0.322265625000000
0.322265625000000
0.322265625000000
0.327148437500000
0.336914062500000
0.356445312500000
0.380859375000000
0.419921875000000
0.449218750000000
0.488281250000000
0.522460937500000
0.546875000000000
0.576171875000000
0.600585937500000
0.620117187500000
0.639648437500000
0.654296875000000
0.664062500000000
0.673828125000000
0.678710937500000
0.683593750000000
0.683593750000000
0.683593750000000
0.673828125000000
0.664062500000000
0.654296875000000
0.644531250000000
0.634765625000000
0.620117187500000
0.605468750000000
0.595703125000000
0.581054687500000
0.571289062500000
0.556640625000000
0.546875000000000
0.537109375000000
0.522460937500000
0.512695312500000
0.502929687500000
0.493164062500000
0.483398437500000
0.473632812500000
0.463867187500000
0.458984375000000
0.449218750000000
0.444335937500000
0.434570312500000
0.424804687500000
0.419921875000000
0.415039062500000
0.410156250000000
0.400390625000000
0.400390625000000
0.395507812500000
0.390625000000000
0.385742187500000
0.380859375000000
0.375976562500000
0.371093750000000
0.366210937500000
0.366210937500000
0.361328125000000
0.356445312500000
0.356445312500000
0.351562500000000
0.351562500000000
0.346679687500000
0.341796875000000
0.341796875000000
0.336914062500000
0.336914062500000
0.336914062500000
0.336914062500000
0.332031250000000
0.332031250000000
0.332031250000000
0.332031250000000
0.327148437500000
0.327148437500000
0.327148437500000
0.327148437500000
0.332031250000000
0.341796875000000
0.356445312500000
0.385742187500000
0.415039062500000
0.444335937500000
0.478515625000000
0.507812500000000
0.537109375000000
0.561523437500000
0.585937500000000
0.600585937500000
0.615234375000000
0.629882812500000
0.634765625000000
0.639648437500000
0.644531250000000
0.639648437500000
0.634765625000000
0.629882812500000
0.620117187500000
0.610351562500000
0.595703125000000
0.585937500000000
0.571289062500000
0.556640625000000
0.546875000000000
0.537109375000000
0.522460937500000
0.512695312500000
0.502929687500000
0.488281250000000
0.478515625000000
0.468750000000000
0.463867187500000
0.454101562500000
0.444335937500000
0.439453125000000
0.429687500000000
0.419921875000000
0.415039062500000
0.410156250000000
0.400390625000000
0.395507812500000
0.390625000000000
0.385742187500000
0.380859375000000
0.375976562500000
0.375976562500000
0.366210937500000
0.361328125000000
0.366210937500000
0.361328125000000
0.356445312500000
0.356445312500000
0.346679687500000
0.346679687500000
0.346679687500000
0.341796875000000
0.336914062500000
0.336914062500000
0.336914062500000
0.336914062500000
0.332031250000000
0.332031250000000
0.332031250000000
0.327148437500000
0.332031250000000
0.327148437500000
0.327148437500000
0.327148437500000
0.327148437500000
0.322265625000000
0.322265625000000
0.327148437500000
0.336914062500000
0.351562500000000
0.380859375000000
0.405273437500000
0.434570312500000
0.468750000000000
0.502929687500000
0.527343750000000
0.556640625000000
0.581054687500000
0.600585937500000
0.615234375000000
0.629882812500000
0.639648437500000
0.649414062500000
0.654296875000000
0.654296875000000
0.649414062500000
0.644531250000000
0.639648437500000
0.629882812500000
0.620117187500000
0.605468750000000
0.595703125000000
0.581054687500000
0.571289062500000
0.556640625000000
0.546875000000000
0.537109375000000
0.527343750000000
0.517578125000000
0.507812500000000
0.493164062500000
0.488281250000000
0.478515625000000
0.468750000000000
0.458984375000000
0.454101562500000
0.444335937500000
0.439453125000000
0.434570312500000
0.424804687500000
0.415039062500000
0.415039062500000
0.405273437500000
0.400390625000000
0.395507812500000
0.390625000000000
0.385742187500000
0.380859375000000
0.380859375000000
0.375976562500000
0.371093750000000
0.371093750000000
0.361328125000000
0.361328125000000
0.356445312500000
0.356445312500000
0.356445312500000
0.351562500000000
0.351562500000000
0.346679687500000
0.346679687500000
0.346679687500000
0.346679687500000
0.341796875000000
0.341796875000000
0.341796875000000
0.336914062500000
0.336914062500000
0.336914062500000
0.336914062500000
0.332031250000000
0.332031250000000
0.332031250000000
0.336914062500000
0.341796875000000
0.361328125000000
0.380859375000000
0.410156250000000
0.444335937500000
0.473632812500000
0.507812500000000
0.532226562500000
0.561523437500000
0.585937500000000
0.605468750000000
0.620117187500000
0.629882812500000
0.639648437500000
0.649414062500000
0.649414062500000
0.654296875000000
0.649414062500000
0.644531250000000
0.634765625000000
0.629882812500000
0.620117187500000
0.605468750000000
0.595703125000000
0.581054687500000
0.571289062500000
0.561523437500000
0.546875000000000
0.537109375000000
0.527343750000000
0.512695312500000
0.502929687500000
0.493164062500000
0.488281250000000
0.478515625000000
0.473632812500000
0.463867187500000
0.458984375000000
0.454101562500000
0.444335937500000
0.439453125000000
0.439453125000000
0.429687500000000
0.424804687500000
0.419921875000000
0.415039062500000
0.410156250000000
0.405273437500000
0.400390625000000
0.400390625000000
0.395507812500000
0.390625000000000
0.385742187500000
0.380859375000000
0.380859375000000
0.380859375000000
0.375976562500000
0.371093750000000
0.371093750000000
0.371093750000000
0.366210937500000
0.361328125000000
0.361328125000000
0.356445312500000
0.356445312500000
0.361328125000000
0.351562500000000
0.356445312500000
0.356445312500000
0.351562500000000
0.351562500000000
0.346679687500000
0.346679687500000
0.346679687500000
0.346679687500000
0.346679687500000
0.346679687500000
0.356445312500000
0.375976562500000
0.400390625000000
0.424804687500000
0.454101562500000
0.478515625000000
0.507812500000000
0.532226562500000
0.551757812500000
0.571289062500000
0.590820312500000
0.595703125000000
0.610351562500000
0.615234375000000
0.615234375000000
0.620117187500000
0.615234375000000
0.610351562500000
0.605468750000000
0.595703125000000
0.590820312500000
0.581054687500000
0.571289062500000
0.561523437500000
0.551757812500000
0.541992187500000
0.532226562500000
0.522460937500000
0.512695312500000
0.507812500000000
0.498046875000000
0.493164062500000
0.488281250000000
0.478515625000000
0.478515625000000
0.473632812500000
0.468750000000000
0.463867187500000
0.458984375000000
0.454101562500000
0.449218750000000
0.449218750000000
0.444335937500000
0.439453125000000
0.439453125000000
0.434570312500000
0.434570312500000
0.429687500000000
0.424804687500000
0.424804687500000
0.419921875000000
0.415039062500000
0.415039062500000
0.410156250000000
0.410156250000000
0.405273437500000
0.400390625000000
0.400390625000000
0.400390625000000
0.400390625000000
0.395507812500000
0.395507812500000
0.390625000000000
0.390625000000000
0.385742187500000
0.385742187500000
0.385742187500000
0.380859375000000
0.380859375000000
0.375976562500000
0.371093750000000
0.371093750000000
0.366210937500000
0.371093750000000
0.366210937500000
0.375976562500000
0.395507812500000
0.424804687500000
0.454101562500000
0.478515625000000
0.507812500000000
0.532226562500000
0.556640625000000
0.576171875000000
0.595703125000000
0.605468750000000
0.620117187500000
0.629882812500000
0.634765625000000
0.639648437500000
0.639648437500000
0.634765625000000
0.629882812500000
0.629882812500000
0.620117187500000
0.615234375000000
0.610351562500000
0.605468750000000
0.595703125000000
0.585937500000000
0.581054687500000
0.571289062500000
0.561523437500000
0.551757812500000
0.546875000000000
0.537109375000000
0.527343750000000
0.517578125000000
0.507812500000000
0.498046875000000
0.488281250000000
0.478515625000000
0.473632812500000
0.463867187500000
0.458984375000000
0.449218750000000
0.444335937500000
0.434570312500000
0.429687500000000
0.419921875000000
0.415039062500000
0.410156250000000
0.405273437500000
0.400390625000000
0.395507812500000
0.390625000000000
0.385742187500000
0.380859375000000
0.380859375000000
0.375976562500000
0.371093750000000
0.371093750000000
0.366210937500000
0.366210937500000
0.356445312500000
0.356445312500000
0.356445312500000
0.356445312500000
0.351562500000000
0.346679687500000
0.346679687500000
0.346679687500000
0.341796875000000
0.336914062500000
0.336914062500000
0.336914062500000
0.336914062500000
0.332031250000000
0.332031250000000
0.327148437500000
0.336914062500000
0.356445312500000
0.375976562500000
0.400390625000000
0.424804687500000
0.454101562500000
0.478515625000000
0.502929687500000
0.517578125000000
0.537109375000000
0.541992187500000
0.556640625000000
0.566406250000000
0.571289062500000
0.576171875000000
0.581054687500000
0.576171875000000
0.576171875000000
0.571289062500000
0.566406250000000
0.561523437500000
0.551757812500000
0.546875000000000
0.541992187500000
0.537109375000000
0.532226562500000
0.522460937500000
0.517578125000000
0.512695312500000
0.502929687500000
0.498046875000000
0.493164062500000
0.488281250000000
0.478515625000000
0.473632812500000
0.468750000000000
0.458984375000000
0.458984375000000
0.449218750000000
0.439453125000000
0.434570312500000
0.429687500000000
0.424804687500000
0.419921875000000
0.415039062500000
0.410156250000000
0.405273437500000
0.400390625000000
0.400390625000000
0.395507812500000
0.390625000000000
0.390625000000000
0.385742187500000
0.380859375000000
0.380859375000000
0.375976562500000
0.375976562500000
0.371093750000000
0.371093750000000
0.371093750000000
0.366210937500000
0.361328125000000
0.366210937500000
0.356445312500000
0.361328125000000
0.361328125000000
0.356445312500000
0.356445312500000
0.356445312500000
0.351562500000000
0.351562500000000
0.351562500000000
0.351562500000000
0.346679687500000
0.341796875000000
0.346679687500000
0.356445312500000
0.371093750000000
0.390625000000000
0.410156250000000
0.439453125000000
0.463867187500000
0.488281250000000
0.512695312500000
0.532226562500000
0.541992187500000
0.556640625000000
0.566406250000000
0.576171875000000
0.585937500000000
0.585937500000000
0.585937500000000
0.585937500000000
0.581054687500000
0.581054687500000
0.576171875000000
0.576171875000000
0.566406250000000
0.561523437500000
0.561523437500000
0.551757812500000
0.546875000000000
0.537109375000000
0.532226562500000
0.527343750000000
0.517578125000000
0.507812500000000
0.502929687500000
0.493164062500000
0.488281250000000
0.478515625000000
0.473632812500000
0.463867187500000
0.458984375000000
0.454101562500000
0.444335937500000
0.439453125000000
0.434570312500000
0.429687500000000
0.419921875000000
0.415039062500000
0.410156250000000
0.405273437500000
0.400390625000000
0.395507812500000
0.390625000000000
0.385742187500000
0.380859375000000
0.380859375000000
0.375976562500000
0.371093750000000
0.371093750000000
0.366210937500000
0.361328125000000
0.361328125000000
0.361328125000000
0.356445312500000
0.356445312500000
0.356445312500000
0.351562500000000
0.351562500000000
0.346679687500000
0.346679687500000
0.341796875000000
0.341796875000000
0.346679687500000
0.341796875000000
0.341796875000000
0.336914062500000
0.336914062500000
0.341796875000000
0.351562500000000
0.371093750000000
0.390625000000000
0.415039062500000
0.439453125000000
0.463867187500000
0.488281250000000
0.507812500000000
0.517578125000000
0.537109375000000
0.541992187500000
0.551757812500000
0.556640625000000
0.556640625000000
0.561523437500000
0.561523437500000
0.556640625000000
0.556640625000000
0.551757812500000
0.546875000000000
0.546875000000000
0.537109375000000
0.537109375000000
0.532226562500000
0.522460937500000
0.522460937500000
0.512695312500000
0.507812500000000
0.502929687500000
0.493164062500000
0.488281250000000
0.488281250000000
0.478515625000000
0.473632812500000
0.468750000000000
0.463867187500000
0.458984375000000
0.449218750000000
0.444335937500000
0.439453125000000
0.429687500000000
0.424804687500000
0.424804687500000
0.415039062500000
0.410156250000000
0.405273437500000
0.400390625000000
0.400390625000000
0.395507812500000
0.390625000000000
0.385742187500000
0.380859375000000
0.380859375000000
0.380859375000000
0.375976562500000
0.375976562500000
0.375976562500000
0.371093750000000
0.366210937500000
0.366210937500000
0.366210937500000
0.366210937500000
0.361328125000000
0.361328125000000
0.361328125000000
0.361328125000000
0.356445312500000
0.356445312500000
0.356445312500000
0.351562500000000
0.351562500000000
0.356445312500000
0.356445312500000
0.366210937500000
0.385742187500000
0.400390625000000
0.424804687500000
0.444335937500000
0.463867187500000
0.488281250000000
0.498046875000000
0.517578125000000
0.527343750000000
0.537109375000000
0.546875000000000
0.546875000000000
0.551757812500000
0.551757812500000
0.551757812500000
0.551757812500000
0.541992187500000
0.541992187500000
0.537109375000000
0.532226562500000
0.527343750000000
0.522460937500000
0.517578125000000
0.512695312500000
0.507812500000000
0.502929687500000
0.498046875000000
0.488281250000000
0.483398437500000
0.483398437500000
0.473632812500000
0.468750000000000
0.463867187500000
0.458984375000000
0.449218750000000
0.444335937500000
0.439453125000000
0.434570312500000
0.434570312500000
0.429687500000000
0.424804687500000
0.415039062500000
0.415039062500000
0.410156250000000
0.405273437500000
0.405273437500000
0.395507812500000
0.395507812500000
0.395507812500000
0.390625000000000
0.390625000000000
0.385742187500000
0.380859375000000
0.380859375000000
0.380859375000000
0.375976562500000
0.375976562500000
0.375976562500000
0.371093750000000
0.371093750000000
0.366210937500000
0.366210937500000
0.361328125000000
0.366210937500000
0.366210937500000
0.375976562500000
0.395507812500000
0.415039062500000
0.444335937500000
0.473632812500000
0.493164062500000
0.517578125000000
0.537109375000000
0.551757812500000
0.566406250000000
0.581054687500000
0.590820312500000
0.595703125000000
0.600585937500000
0.605468750000000
0.600585937500000
0.595703125000000
0.595703125000000
0.585937500000000
0.585937500000000
0.576171875000000
0.571289062500000
0.566406250000000
0.556640625000000
0.551757812500000
0.546875000000000
0.532226562500000
0.532226562500000
0.522460937500000
0.522460937500000
0.512695312500000
0.507812500000000
0.502929687500000
0.493164062500000
0.488281250000000
0.483398437500000
0.473632812500000
0.468750000000000
0.463867187500000
0.458984375000000
0.454101562500000
0.449218750000000
0.439453125000000
0.434570312500000
0.429687500000000
0.424804687500000
0.419921875000000
0.415039062500000
0.410156250000000
0.405273437500000
0.400390625000000
0.395507812500000
0.395507812500000
0.390625000000000
0.385742187500000
0.385742187500000
0.380859375000000
0.380859375000000
0.380859375000000
0.375976562500000
0.375976562500000
0.375976562500000
0.371093750000000
0.371093750000000
0.366210937500000
0.371093750000000
0.375976562500000
0.395507812500000
0.424804687500000
0.449218750000000
0.483398437500000
0.507812500000000
0.537109375000000
0.556640625000000
0.581054687500000
0.600585937500000
0.620117187500000
0.634765625000000
0.644531250000000
0.659179687500000
0.668945312500000
0.673828125000000
0.673828125000000
0.673828125000000
0.673828125000000
0.668945312500000
0.668945312500000
0.659179687500000
0.649414062500000
0.644531250000000
0.634765625000000
0.629882812500000
0.620117187500000
0.610351562500000
0.600585937500000
0.590820312500000
0.585937500000000
0.571289062500000
0.566406250000000
0.556640625000000
0.546875000000000
0.537109375000000
0.532226562500000
0.522460937500000
0.512695312500000
0.507812500000000
0.493164062500000
0.488281250000000
0.483398437500000
0.468750000000000
0.463867187500000
0.454101562500000
0.449218750000000
0.444335937500000
0.434570312500000
0.424804687500000
0.424804687500000
0.415039062500000
0.410156250000000
0.405273437500000
0.400390625000000
0.395507812500000
0.390625000000000
0.385742187500000
0.385742187500000
0.380859375000000
0.380859375000000
0.375976562500000
0.371093750000000
0.371093750000000
0.366210937500000
0.361328125000000
0.361328125000000
0.361328125000000
0.371093750000000
0.385742187500000
0.415039062500000
0.444335937500000
0.468750000000000
0.502929687500000
0.522460937500000
0.546875000000000
0.566406250000000
0.585937500000000
0.610351562500000
0.625000000000000
0.634765625000000
0.649414062500000
0.659179687500000
0.664062500000000
0.668945312500000
0.673828125000000
0.673828125000000
0.673828125000000
0.668945312500000
0.668945312500000
0.664062500000000
0.659179687500000
0.654296875000000
0.644531250000000
0.639648437500000
0.629882812500000
0.620117187500000
0.615234375000000
0.600585937500000
0.590820312500000
0.585937500000000
0.576171875000000
0.566406250000000
0.561523437500000
0.551757812500000
0.541992187500000
0.532226562500000
0.522460937500000
0.517578125000000
0.502929687500000
0.498046875000000
0.488281250000000
0.483398437500000
0.473632812500000
0.468750000000000
0.458984375000000
0.449218750000000
0.444335937500000
0.434570312500000
0.429687500000000
0.424804687500000
0.415039062500000
0.405273437500000
0.400390625000000
0.395507812500000
0.385742187500000
0.380859375000000
0.375976562500000
0.366210937500000
0.361328125000000
0.356445312500000
0.351562500000000
0.346679687500000
0.341796875000000
0.336914062500000
0.336914062500000
0.332031250000000
0.332031250000000
0.327148437500000
0.332031250000000
0.351562500000000
0.375976562500000
0.400390625000000
0.429687500000000
0.458984375000000
0.488281250000000
0.517578125000000
0.537109375000000
0.556640625000000
0.581054687500000
0.595703125000000
0.610351562500000
0.620117187500000
0.634765625000000
0.639648437500000
0.644531250000000
0.649414062500000
0.654296875000000
0.654296875000000
0.654296875000000
0.649414062500000
0.644531250000000
0.639648437500000
0.634765625000000
0.629882812500000
0.620117187500000
0.615234375000000
0.610351562500000
0.605468750000000
0.600585937500000
0.595703125000000
0.590820312500000
0.581054687500000
0.576171875000000
0.566406250000000
0.561523437500000
0.551757812500000
0.546875000000000
0.541992187500000
0.532226562500000
0.527343750000000
0.517578125000000
0.512695312500000
0.502929687500000
0.493164062500000
0.493164062500000
0.483398437500000
0.478515625000000
0.473632812500000
0.468750000000000
0.463867187500000
0.454101562500000
0.449218750000000
0.444335937500000
0.439453125000000
0.434570312500000
0.429687500000000
0.424804687500000
0.419921875000000
0.415039062500000
0.410156250000000
0.410156250000000
0.405273437500000
0.395507812500000
0.390625000000000
0.385742187500000
0.380859375000000
0.380859375000000
0.375976562500000
0.371093750000000
0.366210937500000
0.366210937500000
0.371093750000000
0.385742187500000
0.410156250000000
0.434570312500000
0.458984375000000
0.483398437500000
0.512695312500000
0.527343750000000
0.546875000000000
0.571289062500000
0.585937500000000
0.600585937500000
0.615234375000000
0.625000000000000
0.629882812500000
0.634765625000000
0.644531250000000
0.649414062500000
0.649414062500000
0.649414062500000
0.649414062500000
0.649414062500000
0.644531250000000
0.644531250000000
0.634765625000000
0.629882812500000
0.629882812500000
0.620117187500000
0.615234375000000
0.615234375000000
0.605468750000000
0.595703125000000
0.595703125000000
0.585937500000000
0.581054687500000
0.571289062500000
0.561523437500000
0.556640625000000
0.551757812500000
0.546875000000000
0.541992187500000
0.532226562500000
0.522460937500000
0.517578125000000
0.507812500000000
0.502929687500000
0.498046875000000
0.493164062500000
0.483398437500000
0.478515625000000
0.473632812500000
0.468750000000000
0.463867187500000
0.454101562500000
0.449218750000000
0.439453125000000
0.434570312500000
0.429687500000000
0.424804687500000
0.419921875000000
0.410156250000000
0.400390625000000
0.395507812500000
0.390625000000000
0.385742187500000
0.375976562500000
0.371093750000000
0.366210937500000
0.361328125000000
0.361328125000000
0.356445312500000
0.356445312500000
0.366210937500000
0.380859375000000
0.400390625000000
0.419921875000000
0.439453125000000
0.463867187500000
0.488281250000000
0.507812500000000
0.532226562500000
0.551757812500000
0.571289062500000
0.585937500000000
0.600585937500000
0.615234375000000
0.629882812500000
0.639648437500000
0.644531250000000
0.649414062500000
0.654296875000000
0.659179687500000
0.659179687500000
0.654296875000000
0.654296875000000
0.649414062500000
0.649414062500000
0.639648437500000
0.639648437500000
0.634765625000000
0.629882812500000
0.625000000000000
0.620117187500000
0.615234375000000
0.605468750000000
0.600585937500000
0.590820312500000
0.585937500000000
0.576171875000000
0.571289062500000
0.561523437500000
0.551757812500000
0.546875000000000
0.532226562500000
0.517578125000000
0.507812500000000
0.498046875000000
0.488281250000000
0.478515625000000
0.468750000000000
0.458984375000000
0.449218750000000
0.439453125000000
0.429687500000000
0.419921875000000
0.410156250000000
0.400390625000000
0.390625000000000
0.380859375000000
0.375976562500000
0.366210937500000
0.361328125000000
0.351562500000000
0.346679687500000
0.336914062500000
0.327148437500000
0.322265625000000
0.317382812500000
0.307617187500000
0.302734375000000
0.297851562500000
0.292968750000000
0.288085937500000
0.278320312500000
0.278320312500000
0.273437500000000
0.268554687500000
0.278320312500000
0.292968750000000
0.317382812500000
0.336914062500000
0.366210937500000
0.390625000000000
0.419921875000000
0.444335937500000
0.468750000000000
0.483398437500000
0.507812500000000
0.522460937500000
0.537109375000000
0.546875000000000
0.561523437500000
0.566406250000000
0.571289062500000
0.576171875000000
0.576171875000000
0.576171875000000
0.576171875000000
0.571289062500000
0.566406250000000
0.566406250000000
0.561523437500000
0.556640625000000
0.546875000000000
0.541992187500000
0.537109375000000
0.537109375000000
0.532226562500000
0.527343750000000
0.522460937500000
0.517578125000000
0.512695312500000
0.507812500000000
0.502929687500000
0.498046875000000
0.493164062500000
0.483398437500000
0.483398437500000
0.473632812500000
0.463867187500000
0.458984375000000
0.449218750000000
0.444335937500000
0.434570312500000
0.429687500000000
0.419921875000000
0.415039062500000
0.405273437500000
0.395507812500000
0.390625000000000
0.385742187500000
0.375976562500000
0.375976562500000
0.366210937500000
0.356445312500000
0.356445312500000
0.346679687500000
0.341796875000000
0.341796875000000
0.332031250000000
0.327148437500000
0.322265625000000
0.317382812500000
0.317382812500000
0.317382812500000
0.307617187500000
0.307617187500000
0.302734375000000
0.312500000000000
0.322265625000000
0.336914062500000
0.361328125000000
0.385742187500000
0.410156250000000
0.429687500000000
0.454101562500000
0.478515625000000
0.498046875000000
0.512695312500000
0.527343750000000
0.541992187500000
0.556640625000000
0.561523437500000
0.566406250000000
0.576171875000000
0.571289062500000
0.576171875000000
0.576171875000000
0.571289062500000
0.566406250000000
0.561523437500000
0.551757812500000
0.546875000000000
0.541992187500000
0.537109375000000
0.532226562500000
0.527343750000000
0.517578125000000
0.512695312500000
0.507812500000000
0.498046875000000
0.498046875000000
0.493164062500000
0.488281250000000
0.483398437500000
0.473632812500000
0.473632812500000
0.463867187500000
0.458984375000000
0.458984375000000
0.449218750000000
0.444335937500000
0.434570312500000
0.429687500000000
0.424804687500000
0.419921875000000
0.415039062500000
0.410156250000000
0.400390625000000
0.400390625000000
0.400390625000000
0.395507812500000
0.385742187500000
0.385742187500000
0.380859375000000
0.380859375000000
0.375976562500000
0.371093750000000
0.366210937500000
0.361328125000000
0.361328125000000
0.356445312500000
0.351562500000000
0.351562500000000
0.341796875000000
0.341796875000000
0.336914062500000
0.332031250000000
0.327148437500000
0.322265625000000
0.317382812500000
0.317382812500000
0.327148437500000
0.341796875000000
0.361328125000000
0.385742187500000
0.405273437500000
0.424804687500000
0.449218750000000
0.468750000000000
0.493164062500000
0.507812500000000
0.517578125000000
0.527343750000000
0.537109375000000
0.541992187500000
0.546875000000000
0.551757812500000
0.546875000000000
0.546875000000000
0.541992187500000
0.537109375000000
0.532226562500000
0.527343750000000
0.517578125000000
0.512695312500000
0.502929687500000
0.498046875000000
0.488281250000000
0.478515625000000
0.473632812500000
0.468750000000000
0.458984375000000
0.454101562500000
0.444335937500000
0.444335937500000
0.434570312500000
0.429687500000000
0.424804687500000
0.415039062500000
0.415039062500000
0.405273437500000
0.400390625000000
0.395507812500000
0.390625000000000
0.380859375000000
0.375976562500000
0.371093750000000
0.366210937500000
0.361328125000000
0.356445312500000
0.351562500000000
0.346679687500000
0.341796875000000
0.341796875000000
0.336914062500000
0.332031250000000
0.332031250000000
0.327148437500000
0.322265625000000
0.317382812500000
0.317382812500000
0.312500000000000
0.307617187500000
0.302734375000000
0.302734375000000
0.297851562500000
0.297851562500000
0.292968750000000
0.292968750000000
0.288085937500000
0.288085937500000
0.283203125000000
0.297851562500000
0.312500000000000
0.332031250000000
0.361328125000000
0.390625000000000
0.415039062500000
0.444335937500000
0.473632812500000
0.493164062500000
0.517578125000000
0.532226562500000
0.546875000000000
0.561523437500000
0.571289062500000
0.581054687500000
0.585937500000000
0.585937500000000
0.590820312500000
0.590820312500000
0.585937500000000
0.581054687500000
0.576171875000000
0.566406250000000
0.561523437500000
0.556640625000000
0.546875000000000
0.541992187500000
0.532226562500000
0.527343750000000
0.522460937500000
0.512695312500000
0.507812500000000
0.498046875000000
0.493164062500000
0.483398437500000
0.478515625000000
0.468750000000000
0.468750000000000
0.458984375000000
0.454101562500000
0.444335937500000
0.439453125000000
0.429687500000000
0.424804687500000
0.415039062500000
0.410156250000000
0.405273437500000
0.400390625000000
0.395507812500000
0.385742187500000
0.380859375000000
0.375976562500000
0.371093750000000
0.366210937500000
0.361328125000000
0.356445312500000
0.346679687500000
0.341796875000000
0.341796875000000
0.336914062500000
0.332031250000000
0.327148437500000
0.322265625000000
0.322265625000000
0.317382812500000
0.317382812500000
0.317382812500000
0.312500000000000
0.312500000000000
0.307617187500000
0.302734375000000
0.312500000000000
0.332031250000000
0.356445312500000
0.385742187500000
0.419921875000000
0.449218750000000
0.483398437500000
0.507812500000000
0.537109375000000
0.561523437500000
0.581054687500000
0.595703125000000
0.610351562500000
0.620117187500000
0.629882812500000
0.629882812500000
0.629882812500000
0.629882812500000
0.629882812500000
0.620117187500000
0.615234375000000
0.610351562500000
0.600585937500000
0.590820312500000
0.581054687500000
0.576171875000000
0.566406250000000
0.556640625000000
0.551757812500000
0.537109375000000
0.532226562500000
0.517578125000000
0.512695312500000
0.502929687500000
0.493164062500000
0.483398437500000
0.473632812500000
0.463867187500000
0.454101562500000
0.444335937500000
0.439453125000000
0.429687500000000
0.419921875000000
0.415039062500000
0.400390625000000
0.400390625000000
0.395507812500000
0.385742187500000
0.380859375000000
0.371093750000000
0.361328125000000
0.361328125000000
0.356445312500000
0.351562500000000
0.346679687500000
0.341796875000000
0.341796875000000
0.336914062500000
0.332031250000000
0.327148437500000
0.327148437500000
0.322265625000000
0.322265625000000
0.317382812500000
0.312500000000000
0.312500000000000
0.307617187500000
0.307617187500000
0.317382812500000
0.327148437500000
0.356445312500000
0.385742187500000
0.415039062500000
0.444335937500000
0.473632812500000
0.498046875000000
0.517578125000000
0.541992187500000
0.561523437500000
0.576171875000000
0.585937500000000
0.600585937500000
0.610351562500000
0.615234375000000
0.620117187500000
0.620117187500000
0.620117187500000
0.615234375000000
0.615234375000000
0.605468750000000
0.600585937500000
0.595703125000000
0.590820312500000
0.581054687500000
0.571289062500000
0.566406250000000
0.561523437500000
0.551757812500000
0.541992187500000
0.537109375000000
0.527343750000000
0.517578125000000
0.512695312500000
0.502929687500000
0.498046875000000
0.493164062500000
0.483398437500000
0.478515625000000
0.468750000000000
0.468750000000000
0.458984375000000
0.454101562500000
0.444335937500000
0.439453125000000
0.429687500000000
0.424804687500000
0.415039062500000
0.415039062500000
0.405273437500000
0.395507812500000
0.390625000000000
0.380859375000000
0.375976562500000
0.371093750000000
0.366210937500000
0.361328125000000
0.351562500000000
0.346679687500000
0.341796875000000
0.336914062500000
0.332031250000000
0.327148437500000
0.322265625000000
0.322265625000000
0.317382812500000
0.317382812500000
0.322265625000000
0.341796875000000
0.366210937500000
0.395507812500000
0.424804687500000
0.454101562500000
0.483398437500000
0.507812500000000
0.537109375000000
0.556640625000000
0.576171875000000
0.595703125000000
0.610351562500000
0.625000000000000
0.639648437500000
0.649414062500000
0.654296875000000
0.659179687500000
0.659179687500000
0.664062500000000
0.664062500000000
0.654296875000000
0.649414062500000
0.644531250000000
0.644531250000000
0.634765625000000
0.629882812500000
0.620117187500000
0.610351562500000
0.600585937500000
0.595703125000000
0.585937500000000
0.581054687500000
0.571289062500000
0.561523437500000
0.556640625000000
0.546875000000000
0.541992187500000
0.527343750000000
0.522460937500000
0.517578125000000
0.507812500000000
0.498046875000000
0.488281250000000
0.483398437500000
0.473632812500000
0.468750000000000
0.458984375000000
0.454101562500000
0.444335937500000
0.439453125000000
0.434570312500000
0.424804687500000
0.419921875000000
0.410156250000000
0.400390625000000
0.395507812500000
0.385742187500000
0.380859375000000
0.375976562500000
0.366210937500000
0.366210937500000
0.356445312500000
0.351562500000000
0.346679687500000
0.341796875000000
0.336914062500000
0.332031250000000
0.327148437500000
0.322265625000000
0.317382812500000
0.327148437500000
0.336914062500000
0.361328125000000
0.385742187500000
0.410156250000000
0.439453125000000
0.468750000000000
0.493164062500000
0.517578125000000
0.537109375000000
0.561523437500000
0.576171875000000
0.595703125000000
0.610351562500000
0.625000000000000
0.634765625000000
0.639648437500000
0.649414062500000
0.649414062500000
0.654296875000000
0.649414062500000
0.649414062500000
0.644531250000000
0.639648437500000
0.629882812500000
0.629882812500000
0.620117187500000
0.610351562500000
0.605468750000000
0.595703125000000
0.590820312500000
0.581054687500000
0.571289062500000
0.566406250000000
0.556640625000000
0.546875000000000
0.541992187500000
0.532226562500000
0.522460937500000
0.512695312500000
0.507812500000000
0.498046875000000
0.488281250000000
0.478515625000000
0.473632812500000
0.463867187500000
0.458984375000000
0.449218750000000
0.444335937500000
0.434570312500000
0.424804687500000
0.419921875000000
0.415039062500000
0.405273437500000
0.400390625000000
0.395507812500000
0.385742187500000
0.380859375000000
0.375976562500000
0.366210937500000
0.361328125000000
0.356445312500000
0.351562500000000
0.346679687500000
0.341796875000000
0.332031250000000
0.327148437500000
0.322265625000000
0.322265625000000
0.317382812500000
0.312500000000000
0.307617187500000
0.302734375000000
0.297851562500000
0.307617187500000
0.322265625000000
0.346679687500000
0.375976562500000
0.405273437500000
0.434570312500000
0.458984375000000
0.488281250000000
0.512695312500000
0.532226562500000
0.551757812500000
0.566406250000000
0.581054687500000
0.595703125000000
0.605468750000000
0.610351562500000
0.615234375000000
0.615234375000000
0.620117187500000
0.615234375000000
0.615234375000000
0.610351562500000
0.600585937500000
0.600585937500000
0.595703125000000
0.585937500000000
0.576171875000000
0.571289062500000
0.566406250000000
0.561523437500000
0.551757812500000
0.546875000000000
0.541992187500000
0.532226562500000
0.527343750000000
0.517578125000000
0.512695312500000
0.507812500000000
0.498046875000000
0.488281250000000
0.483398437500000
0.478515625000000
0.473632812500000
0.463867187500000
0.458984375000000
0.449218750000000
0.444335937500000
0.439453125000000
0.429687500000000
0.424804687500000
0.415039062500000
0.410156250000000
0.405273437500000
0.395507812500000
0.390625000000000
0.385742187500000
0.375976562500000
0.371093750000000
0.366210937500000
0.361328125000000
0.356445312500000
0.351562500000000
0.341796875000000
0.341796875000000
0.332031250000000
0.327148437500000
0.327148437500000
0.317382812500000
0.317382812500000
0.307617187500000
0.302734375000000
0.302734375000000
0.297851562500000
0.297851562500000
0.302734375000000
0.317382812500000
0.336914062500000
0.366210937500000
0.390625000000000
0.419921875000000
0.444335937500000
0.468750000000000
0.493164062500000
0.512695312500000
0.532226562500000
0.546875000000000
0.556640625000000
0.571289062500000
0.585937500000000
0.585937500000000
0.595703125000000
0.595703125000000
0.595703125000000
0.595703125000000
0.585937500000000
0.585937500000000
0.576171875000000
0.571289062500000
0.566406250000000
0.556640625000000
0.546875000000000
0.541992187500000
0.532226562500000
0.527343750000000
0.522460937500000
0.512695312500000
0.507812500000000
0.498046875000000
0.493164062500000
0.483398437500000
0.483398437500000
0.478515625000000
0.468750000000000
0.463867187500000
0.454101562500000
0.449218750000000
0.444335937500000
0.434570312500000
0.429687500000000
0.424804687500000
0.415039062500000
0.410156250000000
0.410156250000000
0.405273437500000
0.395507812500000
0.390625000000000
0.385742187500000
0.380859375000000
0.375976562500000
0.371093750000000
0.366210937500000
0.356445312500000
0.351562500000000
0.346679687500000
0.341796875000000
0.336914062500000
0.332031250000000
0.327148437500000
0.327148437500000
0.322265625000000
0.317382812500000
0.317382812500000
0.307617187500000
0.302734375000000
0.302734375000000
0.297851562500000
0.297851562500000
0.297851562500000
0.302734375000000
0.327148437500000
0.346679687500000
0.371093750000000
0.400390625000000
0.419921875000000
0.449218750000000
0.473632812500000
0.488281250000000
0.512695312500000
0.527343750000000
0.541992187500000
0.551757812500000
0.566406250000000
0.571289062500000
0.576171875000000
0.581054687500000
0.581054687500000
0.576171875000000
0.576171875000000
0.571289062500000
0.571289062500000
0.561523437500000
0.556640625000000
0.551757812500000
0.546875000000000
0.537109375000000
0.532226562500000
0.522460937500000
0.522460937500000
0.517578125000000
0.507812500000000
0.502929687500000
0.498046875000000
0.493164062500000
0.483398437500000
0.478515625000000
0.473632812500000
0.468750000000000
0.458984375000000
0.454101562500000
0.444335937500000
0.434570312500000
0.434570312500000
0.424804687500000
0.415039062500000
0.410156250000000
0.400390625000000
0.395507812500000
0.385742187500000
0.380859375000000
0.375976562500000
0.366210937500000
0.366210937500000
0.361328125000000
0.361328125000000
0.356445312500000
0.351562500000000
0.351562500000000
0.356445312500000
0.351562500000000
0.346679687500000
0.346679687500000
0.346679687500000
0.346679687500000
0.346679687500000
0.341796875000000
0.346679687500000
0.346679687500000
0.341796875000000
0.341796875000000
0.341796875000000
0.356445312500000
0.366210937500000
0.380859375000000
0.405273437500000
0.424804687500000
0.449218750000000
0.468750000000000
0.488281250000000
0.512695312500000
0.527343750000000
0.541992187500000
0.551757812500000
0.561523437500000
0.571289062500000
0.581054687500000
0.581054687500000
0.585937500000000
0.585937500000000
0.585937500000000
0.585937500000000
0.581054687500000
0.576171875000000
0.566406250000000
0.561523437500000
0.556640625000000
0.551757812500000
0.541992187500000
0.537109375000000
0.527343750000000
0.522460937500000
0.517578125000000
0.507812500000000
0.502929687500000
0.498046875000000
0.493164062500000
0.488281250000000
0.478515625000000
0.473632812500000
0.473632812500000
0.468750000000000
0.463867187500000
0.463867187500000
0.454101562500000
0.454101562500000
0.449218750000000
0.449218750000000
0.444335937500000
0.439453125000000
0.434570312500000
0.429687500000000
0.424804687500000
0.419921875000000
0.415039062500000
0.410156250000000
0.405273437500000
0.395507812500000
0.390625000000000
0.385742187500000
0.380859375000000
0.375976562500000
0.366210937500000
0.361328125000000
0.361328125000000
0.356445312500000
0.351562500000000
0.346679687500000
0.341796875000000
0.341796875000000
0.336914062500000
0.332031250000000
0.327148437500000
0.322265625000000
0.322265625000000
0.317382812500000
0.312500000000000
0.317382812500000
0.317382812500000
0.327148437500000
0.351562500000000
0.375976562500000
0.395507812500000
0.419921875000000
0.439453125000000
0.458984375000000
0.473632812500000
0.488281250000000
0.502929687500000
0.507812500000000
0.517578125000000
0.517578125000000
0.517578125000000
0.517578125000000
0.517578125000000
0.517578125000000
0.512695312500000
0.502929687500000
0.498046875000000
0.493164062500000
0.493164062500000
0.478515625000000
0.473632812500000
0.468750000000000
0.463867187500000
0.458984375000000
0.454101562500000
0.444335937500000
0.439453125000000
0.434570312500000
0.429687500000000
0.424804687500000
0.424804687500000
0.419921875000000
0.415039062500000
0.410156250000000
0.405273437500000
0.405273437500000
0.400390625000000
0.400390625000000
0.395507812500000
0.390625000000000
0.385742187500000
0.385742187500000
0.375976562500000
0.371093750000000
0.371093750000000
0.366210937500000
0.366210937500000
0.361328125000000
0.361328125000000
0.356445312500000
0.351562500000000
0.346679687500000
0.341796875000000
0.341796875000000
0.336914062500000
0.332031250000000
0.332031250000000
0.332031250000000
0.327148437500000
0.327148437500000
0.322265625000000
0.322265625000000
0.322265625000000
0.317382812500000
0.317382812500000
0.317382812500000
0.317382812500000
0.317382812500000
0.322265625000000
0.346679687500000
0.366210937500000
0.395507812500000
0.419921875000000
0.444335937500000
0.463867187500000
0.488281250000000
0.502929687500000
0.522460937500000
0.532226562500000
0.546875000000000
0.551757812500000
0.561523437500000
0.566406250000000
0.566406250000000
0.566406250000000
0.566406250000000
0.566406250000000
0.561523437500000
0.561523437500000
0.551757812500000
0.546875000000000
0.546875000000000
0.541992187500000
0.532226562500000
0.532226562500000
0.522460937500000
0.517578125000000
0.512695312500000
0.502929687500000
0.502929687500000
0.493164062500000
0.488281250000000
0.478515625000000
0.468750000000000
0.468750000000000
0.463867187500000
0.454101562500000
0.449218750000000
0.444335937500000
0.439453125000000
0.434570312500000
0.424804687500000
0.424804687500000
0.415039062500000
0.405273437500000
0.400390625000000
0.395507812500000
0.390625000000000
0.385742187500000
0.380859375000000
0.375976562500000
0.371093750000000
0.366210937500000
0.361328125000000
0.361328125000000
0.356445312500000
0.351562500000000
0.346679687500000
0.346679687500000
0.346679687500000
0.341796875000000
0.346679687500000
0.341796875000000
0.341796875000000
0.341796875000000
0.336914062500000
0.341796875000000
0.336914062500000
0.341796875000000
0.351562500000000
0.371093750000000
0.400390625000000
0.424804687500000
0.449218750000000
0.468750000000000
0.493164062500000
0.512695312500000
0.527343750000000
0.541992187500000
0.551757812500000
0.556640625000000
0.566406250000000
0.576171875000000
0.571289062500000
0.576171875000000
0.571289062500000
0.571289062500000
0.566406250000000
0.561523437500000
0.556640625000000
0.556640625000000
0.551757812500000
0.546875000000000
0.541992187500000
0.532226562500000
0.532226562500000
0.522460937500000
0.517578125000000
0.517578125000000
0.512695312500000
0.507812500000000
0.498046875000000
0.493164062500000
0.488281250000000
0.483398437500000
0.478515625000000
0.473632812500000
0.468750000000000
0.463867187500000
0.463867187500000
0.454101562500000
0.449218750000000
0.444335937500000
0.439453125000000
0.434570312500000
0.429687500000000
0.424804687500000
0.419921875000000
0.415039062500000
0.405273437500000
0.405273437500000
0.395507812500000
0.395507812500000
0.385742187500000
0.380859375000000
0.375976562500000
0.371093750000000
0.366210937500000
0.356445312500000
0.356445312500000
0.351562500000000
0.346679687500000
0.336914062500000
0.336914062500000
0.332031250000000
0.332031250000000
0.336914062500000
0.351562500000000
0.375976562500000
0.400390625000000
0.429687500000000
0.454101562500000
0.478515625000000
0.502929687500000
0.527343750000000
0.541992187500000
0.556640625000000
0.571289062500000
0.585937500000000
0.595703125000000
0.600585937500000
0.605468750000000
0.610351562500000
0.610351562500000
0.610351562500000
0.605468750000000
0.605468750000000
0.600585937500000
0.590820312500000
0.585937500000000
0.581054687500000
0.576171875000000
0.571289062500000
0.566406250000000
0.556640625000000
0.551757812500000
0.546875000000000
0.537109375000000
0.537109375000000
0.527343750000000
0.522460937500000
0.517578125000000
0.507812500000000
0.502929687500000
0.498046875000000
0.488281250000000
0.488281250000000
0.478515625000000
0.473632812500000
0.468750000000000
0.458984375000000
0.454101562500000
0.449218750000000
0.439453125000000
0.434570312500000
0.429687500000000
0.424804687500000
0.415039062500000
0.415039062500000
0.405273437500000
0.400390625000000
0.400390625000000
0.390625000000000
0.385742187500000
0.380859375000000
0.375976562500000
0.371093750000000
0.366210937500000
0.361328125000000
0.356445312500000
0.351562500000000
0.346679687500000
0.341796875000000
0.336914062500000
0.336914062500000
0.332031250000000
0.332031250000000
0.346679687500000
0.366210937500000
0.385742187500000
0.410156250000000
0.434570312500000
0.463867187500000
0.488281250000000
0.507812500000000
0.527343750000000
0.546875000000000
0.561523437500000
0.576171875000000
0.585937500000000
0.595703125000000
0.605468750000000
0.605468750000000
0.610351562500000
0.605468750000000
0.605468750000000
0.605468750000000
0.600585937500000
0.595703125000000
0.585937500000000
0.581054687500000
0.576171875000000
0.571289062500000
0.566406250000000
0.556640625000000
0.551757812500000
0.546875000000000
0.541992187500000
0.537109375000000
0.527343750000000
0.522460937500000
0.517578125000000
0.507812500000000
0.502929687500000
0.498046875000000
0.493164062500000
0.483398437500000
0.478515625000000
0.473632812500000
0.468750000000000
0.463867187500000
0.454101562500000
0.454101562500000
0.444335937500000
0.439453125000000
0.434570312500000
0.424804687500000
0.419921875000000
0.415039062500000
0.410156250000000
0.405273437500000
0.400390625000000
0.395507812500000
0.390625000000000
0.385742187500000
0.380859375000000
0.371093750000000
0.366210937500000
0.361328125000000
0.361328125000000
0.351562500000000
0.351562500000000
0.346679687500000
0.341796875000000
0.336914062500000
0.336914062500000
0.346679687500000
0.361328125000000
0.380859375000000
0.410156250000000
0.429687500000000
0.458984375000000
0.478515625000000
0.502929687500000
0.527343750000000
0.541992187500000
0.556640625000000
0.576171875000000
0.585937500000000
0.595703125000000
0.605468750000000
0.605468750000000
0.610351562500000
0.610351562500000
0.605468750000000
0.600585937500000
0.600585937500000
0.595703125000000
0.590820312500000
0.585937500000000
0.576171875000000
0.571289062500000
0.566406250000000
0.561523437500000
0.551757812500000
0.546875000000000
0.546875000000000
0.537109375000000
0.532226562500000
0.527343750000000
0.517578125000000
0.517578125000000
0.507812500000000
0.498046875000000
0.493164062500000
0.488281250000000
0.483398437500000
0.478515625000000
0.473632812500000
0.468750000000000
0.463867187500000
0.458984375000000
0.454101562500000
0.444335937500000
0.439453125000000
0.434570312500000
0.429687500000000
0.424804687500000
0.424804687500000
0.415039062500000
0.415039062500000
0.405273437500000
0.400390625000000
0.400390625000000
0.390625000000000
0.390625000000000
0.385742187500000
0.375976562500000
0.371093750000000
0.366210937500000
0.366210937500000
0.361328125000000
0.356445312500000
0.351562500000000
0.346679687500000
0.346679687500000
0.356445312500000
0.371093750000000
0.395507812500000
0.419921875000000
0.434570312500000
0.458984375000000
0.483398437500000
0.507812500000000
0.522460937500000
0.537109375000000
0.551757812500000
0.566406250000000
0.571289062500000
0.581054687500000
0.585937500000000
0.590820312500000
0.590820312500000
0.585937500000000
0.585937500000000
0.581054687500000
0.571289062500000
0.571289062500000
0.561523437500000
0.556640625000000
0.551757812500000
0.541992187500000
0.537109375000000
0.527343750000000
0.522460937500000
0.512695312500000
0.507812500000000
0.498046875000000
0.493164062500000
0.483398437500000
0.478515625000000
0.473632812500000
0.468750000000000
0.463867187500000
0.458984375000000
0.449218750000000
0.444335937500000
0.434570312500000
0.429687500000000
0.424804687500000
0.419921875000000
0.410156250000000
0.405273437500000
0.400390625000000
0.395507812500000
0.390625000000000
0.380859375000000
0.380859375000000
0.375976562500000
0.371093750000000
0.366210937500000
0.361328125000000
0.361328125000000
0.351562500000000
0.351562500000000
0.346679687500000
0.341796875000000
0.341796875000000
0.336914062500000
0.332031250000000
0.332031250000000
0.322265625000000
0.327148437500000
0.322265625000000
0.317382812500000
0.322265625000000
0.336914062500000
0.356445312500000
0.375976562500000
0.400390625000000
0.424804687500000
0.449218750000000
0.468750000000000
0.488281250000000
0.507812500000000
0.522460937500000
0.537109375000000
0.546875000000000
0.556640625000000
0.561523437500000
0.561523437500000
0.566406250000000
0.566406250000000
0.561523437500000
0.556640625000000
0.551757812500000
0.546875000000000
0.541992187500000
0.532226562500000
0.527343750000000
0.517578125000000
0.512695312500000
0.502929687500000
0.493164062500000
0.488281250000000
0.483398437500000
0.473632812500000
0.468750000000000
0.463867187500000
0.458984375000000
0.454101562500000
0.449218750000000
0.439453125000000
0.439453125000000
0.429687500000000
0.424804687500000
0.424804687500000
0.419921875000000
0.415039062500000
0.410156250000000
0.405273437500000
0.405273437500000
0.395507812500000
0.395507812500000
0.385742187500000
0.385742187500000
0.380859375000000
0.375976562500000
0.380859375000000
0.371093750000000
0.366210937500000
0.361328125000000
0.356445312500000
0.356445312500000
0.356445312500000
0.351562500000000
0.351562500000000
0.346679687500000
0.346679687500000
0.341796875000000
0.341796875000000
0.336914062500000
0.336914062500000
0.336914062500000
0.332031250000000
0.332031250000000
0.336914062500000
0.346679687500000
0.366210937500000
0.390625000000000
0.419921875000000
0.444335937500000
0.468750000000000
0.493164062500000
0.512695312500000
0.527343750000000
0.541992187500000
0.551757812500000
0.561523437500000
0.571289062500000
0.576171875000000
0.581054687500000
0.581054687500000
0.576171875000000
0.571289062500000
0.571289062500000
0.561523437500000
0.556640625000000
0.546875000000000
0.541992187500000
0.537109375000000
0.527343750000000
0.522460937500000
0.512695312500000
0.507812500000000
0.502929687500000
0.493164062500000
0.483398437500000
0.478515625000000
0.473632812500000
0.468750000000000
0.463867187500000
0.454101562500000
0.449218750000000
0.439453125000000
0.439453125000000
0.429687500000000
0.429687500000000
0.419921875000000
0.415039062500000
0.415039062500000
0.410156250000000
0.405273437500000
0.400390625000000
0.395507812500000
0.395507812500000
0.385742187500000
0.385742187500000
0.385742187500000
0.375976562500000
0.375976562500000
0.371093750000000
0.371093750000000
0.366210937500000
0.361328125000000
0.361328125000000
0.356445312500000
0.351562500000000
0.351562500000000
0.351562500000000
0.346679687500000
0.346679687500000
0.341796875000000
0.341796875000000
0.341796875000000
0.341796875000000
0.351562500000000
0.371093750000000
0.395507812500000
0.424804687500000
0.449218750000000
0.473632812500000
0.498046875000000
0.517578125000000
0.537109375000000
0.551757812500000
0.566406250000000
0.576171875000000
0.581054687500000
0.590820312500000
0.595703125000000
0.600585937500000
0.600585937500000
0.600585937500000
0.595703125000000
0.590820312500000
0.590820312500000
0.581054687500000
0.576171875000000
0.571289062500000
0.561523437500000
0.556640625000000
0.546875000000000
0.541992187500000
0.537109375000000
0.527343750000000
0.522460937500000
0.512695312500000
0.507812500000000
0.498046875000000
0.493164062500000
0.488281250000000
0.478515625000000
0.473632812500000
0.468750000000000
0.458984375000000
0.458984375000000
0.454101562500000
0.444335937500000
0.444335937500000
0.434570312500000
0.429687500000000
0.424804687500000
0.419921875000000
0.415039062500000
0.410156250000000
0.405273437500000
0.400390625000000
0.400390625000000
0.395507812500000
0.395507812500000
0.380859375000000
0.380859375000000
0.380859375000000
0.371093750000000
0.371093750000000
0.361328125000000
0.361328125000000
0.361328125000000
0.351562500000000
0.356445312500000
0.361328125000000
0.375976562500000
0.400390625000000
0.424804687500000
0.449218750000000
0.473632812500000
0.498046875000000
0.522460937500000
0.541992187500000
0.561523437500000
0.576171875000000
0.590820312500000
0.605468750000000
0.620117187500000
0.629882812500000
0.634765625000000
0.639648437500000
0.644531250000000
0.644531250000000
0.639648437500000
0.634765625000000
0.634765625000000
0.625000000000000
0.615234375000000
0.605468750000000
0.600585937500000
0.590820312500000
0.585937500000000
0.576171875000000
0.571289062500000
0.561523437500000
0.556640625000000
0.551757812500000
0.546875000000000
0.537109375000000
0.527343750000000
0.522460937500000
0.517578125000000
0.512695312500000
0.502929687500000
0.493164062500000
0.488281250000000
0.483398437500000
0.473632812500000
0.468750000000000
0.463867187500000
0.454101562500000
0.449218750000000
0.444335937500000
0.439453125000000
0.434570312500000
0.419921875000000
0.419921875000000
0.410156250000000
0.410156250000000
0.405273437500000
0.400390625000000
0.390625000000000
0.390625000000000
0.380859375000000
0.380859375000000
0.375976562500000
0.366210937500000
0.366210937500000
0.361328125000000
0.351562500000000
0.351562500000000
0.346679687500000
0.341796875000000
0.336914062500000
0.346679687500000
0.366210937500000
0.380859375000000
0.410156250000000
0.439453125000000
0.463867187500000
0.493164062500000
0.517578125000000
0.537109375000000
0.556640625000000
0.581054687500000
0.595703125000000
0.610351562500000
0.625000000000000
0.634765625000000
0.649414062500000
0.649414062500000
0.659179687500000
0.659179687500000
0.664062500000000
0.664062500000000
0.659179687500000
0.654296875000000
0.639648437500000
0.634765625000000
0.629882812500000
0.620117187500000
0.610351562500000
0.600585937500000
0.595703125000000
0.585937500000000
0.576171875000000
0.571289062500000
0.561523437500000
0.556640625000000
0.546875000000000
0.541992187500000
0.532226562500000
0.522460937500000
0.517578125000000
0.502929687500000
0.498046875000000
0.488281250000000
0.478515625000000
0.473632812500000
0.463867187500000
0.458984375000000
0.449218750000000
0.439453125000000
0.434570312500000
0.429687500000000
0.415039062500000
0.410156250000000
0.405273437500000
0.400390625000000
0.395507812500000
0.385742187500000
0.380859375000000
0.375976562500000
0.371093750000000
0.366210937500000
0.356445312500000
0.356445312500000
0.346679687500000
0.346679687500000
0.341796875000000
0.336914062500000
0.336914062500000
0.327148437500000
0.322265625000000
0.322265625000000
0.322265625000000
0.317382812500000
0.317382812500000
0.312500000000000
0.327148437500000
0.346679687500000
0.371093750000000
0.400390625000000
0.429687500000000
0.454101562500000
0.483398437500000
0.512695312500000
0.537109375000000
0.556640625000000
0.576171875000000
0.590820312500000
0.610351562500000
0.620117187500000
0.634765625000000
0.639648437500000
0.649414062500000
0.654296875000000
0.654296875000000
0.654296875000000
0.649414062500000
0.649414062500000
0.639648437500000
0.639648437500000
0.629882812500000
0.620117187500000
0.615234375000000
0.605468750000000
0.595703125000000
0.585937500000000
0.585937500000000
0.576171875000000
0.566406250000000
0.561523437500000
0.551757812500000
0.541992187500000
0.537109375000000
0.527343750000000
0.517578125000000
0.507812500000000
0.502929687500000
0.493164062500000
0.483398437500000
0.478515625000000
0.473632812500000
0.458984375000000
0.454101562500000
0.444335937500000
0.439453125000000
0.434570312500000
0.424804687500000
0.419921875000000
0.410156250000000
0.405273437500000
0.405273437500000
0.395507812500000
0.385742187500000
0.385742187500000
0.375976562500000
0.371093750000000
0.366210937500000
0.356445312500000
0.351562500000000
0.346679687500000
0.341796875000000
0.336914062500000
0.332031250000000
0.322265625000000
0.317382812500000
0.317382812500000
0.312500000000000
0.307617187500000
0.302734375000000
0.302734375000000
0.297851562500000
0.297851562500000
0.307617187500000
0.322265625000000
0.351562500000000
0.380859375000000
0.415039062500000
0.439453125000000
0.468750000000000
0.493164062500000
0.517578125000000
0.537109375000000
0.551757812500000
0.566406250000000
0.581054687500000
0.595703125000000
0.605468750000000
0.610351562500000
0.615234375000000
0.620117187500000
0.620117187500000
0.620117187500000
0.615234375000000
0.610351562500000
0.600585937500000
0.590820312500000
0.581054687500000
0.576171875000000
0.571289062500000
0.561523437500000
0.551757812500000
0.541992187500000
0.537109375000000
0.532226562500000
0.522460937500000
0.517578125000000
0.507812500000000
0.498046875000000
0.493164062500000
0.488281250000000
0.478515625000000
0.473632812500000
0.468750000000000
0.458984375000000
0.454101562500000
0.439453125000000
0.434570312500000
0.429687500000000
0.419921875000000
0.415039062500000
0.410156250000000
0.400390625000000
0.395507812500000
0.385742187500000
0.380859375000000
0.380859375000000
0.371093750000000
0.371093750000000
0.366210937500000
0.356445312500000
0.356445312500000
0.346679687500000
0.346679687500000
0.341796875000000
0.336914062500000
0.332031250000000
0.327148437500000
0.327148437500000
0.322265625000000
0.317382812500000
0.307617187500000
0.307617187500000
0.302734375000000
0.302734375000000
0.297851562500000
0.297851562500000
0.292968750000000
0.288085937500000
0.292968750000000
0.302734375000000
0.317382812500000
0.346679687500000
0.371093750000000
0.395507812500000
0.419921875000000
0.444335937500000
0.463867187500000
0.483398437500000
0.502929687500000
0.512695312500000
0.527343750000000
0.532226562500000
0.541992187500000
0.546875000000000
0.546875000000000
0.546875000000000
0.541992187500000
0.537109375000000
0.532226562500000
0.527343750000000
0.522460937500000
0.507812500000000
0.502929687500000
0.498046875000000
0.483398437500000
0.478515625000000
0.473632812500000
0.458984375000000
0.454101562500000
0.449218750000000
0.439453125000000
0.439453125000000
0.429687500000000
0.424804687500000
0.419921875000000
0.415039062500000
0.410156250000000
0.405273437500000
0.400390625000000
0.395507812500000
0.385742187500000
0.380859375000000
0.375976562500000
0.371093750000000
0.371093750000000
0.361328125000000
0.361328125000000
0.356445312500000
0.351562500000000
0.351562500000000
0.346679687500000
0.346679687500000
0.341796875000000
0.336914062500000
0.336914062500000
0.332031250000000
0.332031250000000
0.332031250000000
0.322265625000000
0.327148437500000
0.322265625000000
0.317382812500000
0.317382812500000
0.317382812500000
0.312500000000000
0.312500000000000
0.307617187500000
0.302734375000000
0.307617187500000
0.302734375000000
0.297851562500000
0.297851562500000
0.297851562500000
0.297851562500000
0.307617187500000
0.322265625000000
0.341796875000000
0.371093750000000
0.395507812500000
0.424804687500000
0.449218750000000
0.473632812500000
0.498046875000000
0.512695312500000
0.527343750000000
0.541992187500000
0.551757812500000
0.561523437500000
0.561523437500000
0.566406250000000
0.566406250000000
0.566406250000000
0.561523437500000
0.556640625000000
0.551757812500000
0.541992187500000
0.537109375000000
0.527343750000000
0.522460937500000
0.512695312500000
0.507812500000000
0.498046875000000
0.498046875000000
0.488281250000000
0.478515625000000
0.478515625000000
0.473632812500000
0.463867187500000
0.458984375000000
0.454101562500000
0.449218750000000
0.444335937500000
0.439453125000000
0.434570312500000
0.424804687500000
0.424804687500000
0.419921875000000
0.415039062500000
0.410156250000000
0.405273437500000
0.400390625000000
0.395507812500000
0.390625000000000
0.385742187500000
0.380859375000000
0.380859375000000
0.375976562500000
0.371093750000000
0.366210937500000
0.361328125000000
0.356445312500000
0.356445312500000
0.351562500000000
0.346679687500000
0.341796875000000
0.336914062500000
0.332031250000000
0.332031250000000
0.327148437500000
0.332031250000000
0.322265625000000
0.322265625000000
0.317382812500000
0.322265625000000
0.317382812500000
0.317382812500000
0.327148437500000
0.336914062500000
0.361328125000000
0.385742187500000
0.410156250000000
0.439453125000000
0.468750000000000
0.488281250000000
0.512695312500000
0.532226562500000
0.546875000000000
0.556640625000000
0.571289062500000
0.581054687500000
0.585937500000000
0.590820312500000
0.590820312500000
0.595703125000000
0.590820312500000
0.585937500000000
0.585937500000000
0.576171875000000
0.571289062500000
0.566406250000000
0.556640625000000
0.551757812500000
0.541992187500000
0.537109375000000
0.527343750000000
0.522460937500000
0.517578125000000
0.512695312500000
0.502929687500000
0.498046875000000
0.493164062500000
0.488281250000000
0.478515625000000
0.473632812500000
0.468750000000000
0.463867187500000
0.454101562500000
0.454101562500000
0.449218750000000
0.439453125000000
0.434570312500000
0.424804687500000
0.419921875000000
0.415039062500000
0.410156250000000
0.405273437500000
0.400390625000000
0.395507812500000
0.385742187500000
0.385742187500000
0.380859375000000
0.371093750000000
0.371093750000000
0.366210937500000
0.356445312500000
0.356445312500000
0.351562500000000
0.346679687500000
0.341796875000000
0.341796875000000
0.336914062500000
0.332031250000000
0.332031250000000
0.332031250000000
0.327148437500000
0.327148437500000
0.322265625000000
0.322265625000000
0.327148437500000
0.336914062500000
0.356445312500000
0.380859375000000
0.410156250000000
0.439453125000000
0.458984375000000
0.483398437500000
0.502929687500000
0.522460937500000
0.541992187500000
0.551757812500000
0.566406250000000
0.576171875000000
0.585937500000000
0.585937500000000
0.590820312500000
0.590820312500000
0.590820312500000
0.581054687500000
0.581054687500000
0.576171875000000
0.566406250000000
0.561523437500000
0.551757812500000
0.546875000000000
0.537109375000000
0.532226562500000
0.522460937500000
0.512695312500000
0.502929687500000
0.498046875000000
0.493164062500000
0.483398437500000
0.478515625000000
0.468750000000000
0.458984375000000
0.454101562500000
0.449218750000000
0.444335937500000
0.434570312500000
0.429687500000000
0.419921875000000
0.415039062500000
0.410156250000000
0.405273437500000
0.400390625000000
0.395507812500000
0.390625000000000
0.385742187500000
0.385742187500000
0.375976562500000
0.371093750000000
0.366210937500000
0.361328125000000
0.361328125000000
0.356445312500000
0.356445312500000
0.351562500000000
0.346679687500000
0.346679687500000
0.341796875000000
0.336914062500000
0.336914062500000
0.336914062500000
0.332031250000000
0.332031250000000
0.332031250000000
0.327148437500000
0.327148437500000
0.327148437500000
0.327148437500000
0.322265625000000
0.322265625000000
0.322265625000000
0.322265625000000
0.336914062500000
0.356445312500000
0.375976562500000
0.400390625000000
0.424804687500000
0.449218750000000
0.473632812500000
0.493164062500000
0.512695312500000
0.527343750000000
0.541992187500000
0.551757812500000
0.556640625000000
0.566406250000000
0.571289062500000
0.566406250000000
0.566406250000000
0.561523437500000
0.556640625000000
0.546875000000000
0.541992187500000
0.532226562500000
0.527343750000000
0.517578125000000
0.507812500000000
0.502929687500000
0.493164062500000
0.488281250000000
0.483398437500000
0.478515625000000
0.473632812500000
0.468750000000000
0.463867187500000
0.454101562500000
0.454101562500000
0.444335937500000
0.434570312500000
0.434570312500000
0.429687500000000
0.424804687500000
0.419921875000000
0.410156250000000
0.405273437500000
0.400390625000000
0.395507812500000
0.395507812500000
0.395507812500000
0.385742187500000
0.380859375000000
0.380859375000000
0.375976562500000
0.380859375000000
0.375976562500000
0.375976562500000
0.371093750000000
0.371093750000000
0.366210937500000
0.366210937500000
0.366210937500000
0.361328125000000
0.356445312500000
0.356445312500000
0.356445312500000
0.351562500000000
0.351562500000000
0.346679687500000
0.346679687500000
0.346679687500000
0.346679687500000
0.341796875000000
0.341796875000000
0.341796875000000
0.346679687500000
0.366210937500000
0.385742187500000
0.410156250000000
0.434570312500000
0.463867187500000
0.488281250000000
0.512695312500000
0.527343750000000
0.546875000000000
0.556640625000000
0.571289062500000
0.576171875000000
0.581054687500000
0.581054687500000
0.581054687500000
0.581054687500000
0.576171875000000
0.571289062500000
0.561523437500000
0.551757812500000
0.546875000000000
0.537109375000000
0.532226562500000
0.522460937500000
0.517578125000000
0.512695312500000
0.502929687500000
0.493164062500000
0.488281250000000
0.483398437500000
0.473632812500000
0.468750000000000
0.463867187500000
0.458984375000000
0.454101562500000
0.449218750000000
0.444335937500000
0.434570312500000
0.429687500000000
0.429687500000000
0.419921875000000
0.415039062500000
0.410156250000000
0.405273437500000
0.400390625000000
0.395507812500000
0.395507812500000
0.390625000000000
0.385742187500000
0.380859375000000
0.380859375000000
0.375976562500000
0.371093750000000
0.371093750000000
0.371093750000000
0.366210937500000
0.366210937500000
0.361328125000000
0.361328125000000
0.356445312500000
0.351562500000000
0.351562500000000
0.351562500000000
0.346679687500000
0.346679687500000
0.341796875000000
0.341796875000000
0.341796875000000
0.346679687500000
0.361328125000000
0.380859375000000
0.410156250000000
0.434570312500000
0.463867187500000
0.488281250000000
0.512695312500000
0.537109375000000
0.556640625000000
0.571289062500000
0.590820312500000
0.600585937500000
0.610351562500000
0.620117187500000
0.625000000000000
0.629882812500000
0.629882812500000
0.625000000000000
0.620117187500000
0.615234375000000
0.610351562500000
0.600585937500000
0.590820312500000
0.585937500000000
0.576171875000000
0.561523437500000
0.551757812500000
0.546875000000000
0.537109375000000
0.527343750000000
0.522460937500000
0.512695312500000
0.507812500000000
0.498046875000000
0.488281250000000
0.483398437500000
0.473632812500000
0.468750000000000
0.463867187500000
0.454101562500000
0.449218750000000
0.439453125000000
0.434570312500000
0.424804687500000
0.419921875000000
0.415039062500000
0.405273437500000
0.400390625000000
0.395507812500000
0.390625000000000
0.385742187500000
0.385742187500000
0.380859375000000
0.375976562500000
0.371093750000000
0.366210937500000
0.366210937500000
0.361328125000000
0.361328125000000
0.356445312500000
0.356445312500000
0.356445312500000
0.351562500000000
0.351562500000000
0.351562500000000
0.346679687500000
0.351562500000000
0.346679687500000
0.341796875000000
0.346679687500000
0.346679687500000
0.366210937500000
0.385742187500000
0.415039062500000
0.439453125000000
0.468750000000000
0.498046875000000
0.522460937500000
0.546875000000000
0.566406250000000
0.590820312500000
0.605468750000000
0.615234375000000
0.629882812500000
0.634765625000000
0.639648437500000
0.644531250000000
0.644531250000000
0.644531250000000
0.639648437500000
0.634765625000000
0.629882812500000
0.620117187500000
0.610351562500000
0.600585937500000
0.590820312500000
0.581054687500000
0.571289062500000
0.561523437500000
0.551757812500000
0.546875000000000
0.537109375000000
0.522460937500000
0.517578125000000
0.507812500000000
0.498046875000000
0.488281250000000
0.483398437500000
0.473632812500000
0.468750000000000
0.463867187500000
0.454101562500000
0.444335937500000
0.439453125000000
0.434570312500000
0.424804687500000
0.419921875000000
0.415039062500000
0.405273437500000
0.405273437500000
0.395507812500000
0.390625000000000
0.390625000000000
0.380859375000000
0.380859375000000
0.375976562500000
0.371093750000000
0.361328125000000
0.361328125000000
0.356445312500000
0.356445312500000
0.356445312500000
0.351562500000000
0.351562500000000
0.346679687500000
0.346679687500000
0.341796875000000
0.341796875000000
0.341796875000000
0.336914062500000
0.336914062500000
0.332031250000000
0.332031250000000
0.341796875000000
0.351562500000000
0.371093750000000
0.400390625000000
0.424804687500000
0.454101562500000
0.483398437500000
0.507812500000000
0.532226562500000
0.551757812500000
0.571289062500000
0.590820312500000
0.600585937500000
0.610351562500000
0.620117187500000
0.625000000000000
0.625000000000000
0.625000000000000
0.620117187500000
0.620117187500000
0.610351562500000
0.605468750000000
0.595703125000000
0.585937500000000
0.581054687500000
0.566406250000000
0.561523437500000
0.551757812500000
0.541992187500000
0.532226562500000
0.522460937500000
0.512695312500000
0.507812500000000
0.498046875000000
0.493164062500000
0.483398437500000
0.473632812500000
0.468750000000000
0.463867187500000
0.454101562500000
0.449218750000000
0.439453125000000
0.434570312500000
0.429687500000000
0.419921875000000
0.415039062500000
0.410156250000000
0.405273437500000
0.395507812500000
0.395507812500000
0.385742187500000
0.385742187500000
0.375976562500000
0.375976562500000
0.371093750000000
0.366210937500000
0.366210937500000
0.366210937500000
0.356445312500000
0.356445312500000
0.351562500000000
0.351562500000000
0.351562500000000
0.346679687500000
0.346679687500000
0.346679687500000
0.341796875000000
0.341796875000000
0.336914062500000
0.336914062500000
0.336914062500000
0.332031250000000
0.332031250000000
0.332031250000000
0.336914062500000
0.351562500000000
0.366210937500000
0.395507812500000
0.424804687500000
0.454101562500000
0.483398437500000
0.512695312500000
0.537109375000000
0.556640625000000
0.576171875000000
0.590820312500000
0.605468750000000
0.610351562500000
0.620117187500000
0.625000000000000
0.629882812500000
0.629882812500000
0.629882812500000
0.620117187500000
0.615234375000000
0.610351562500000
0.600585937500000
0.590820312500000
0.585937500000000
0.576171875000000
0.566406250000000
0.556640625000000
0.551757812500000
0.541992187500000
0.537109375000000
0.527343750000000
0.522460937500000
0.517578125000000
0.507812500000000
0.498046875000000
0.493164062500000
0.483398437500000
0.478515625000000
0.473632812500000
0.468750000000000
0.463867187500000
0.454101562500000
0.444335937500000
0.444335937500000
0.434570312500000
0.424804687500000
0.415039062500000
0.410156250000000
0.405273437500000
0.400390625000000
0.395507812500000
0.385742187500000
0.380859375000000
0.375976562500000
0.375976562500000
0.371093750000000
0.366210937500000
0.361328125000000
0.361328125000000
0.356445312500000
0.351562500000000
0.351562500000000
0.346679687500000
0.346679687500000
0.346679687500000
0.346679687500000
0.341796875000000
0.341796875000000
0.336914062500000
0.332031250000000
0.332031250000000
0.332031250000000
0.332031250000000
0.332031250000000
0.341796875000000
0.356445312500000
0.380859375000000
0.405273437500000
0.434570312500000
0.468750000000000
0.493164062500000
0.512695312500000
0.537109375000000
0.551757812500000
0.571289062500000
0.581054687500000
0.590820312500000
0.595703125000000
0.605468750000000
0.610351562500000
0.605468750000000
0.605468750000000
0.600585937500000
0.600585937500000
0.585937500000000
0.581054687500000
0.576171875000000
0.561523437500000
0.556640625000000
0.551757812500000
0.541992187500000
0.537109375000000
0.527343750000000
0.517578125000000
0.512695312500000
0.502929687500000
0.493164062500000
0.488281250000000
0.478515625000000
0.473632812500000
0.463867187500000
0.458984375000000
0.449218750000000
0.449218750000000
0.439453125000000
0.434570312500000
0.424804687500000
0.415039062500000
0.410156250000000
0.405273437500000
0.400390625000000
0.390625000000000
0.385742187500000
0.380859375000000
0.375976562500000
0.371093750000000
0.366210937500000
0.361328125000000
0.361328125000000
0.356445312500000
0.351562500000000
0.351562500000000
0.346679687500000
0.346679687500000
0.341796875000000
0.336914062500000
0.336914062500000
0.336914062500000
0.336914062500000
0.332031250000000
0.332031250000000
0.332031250000000
0.327148437500000
0.327148437500000
0.327148437500000
0.327148437500000
0.332031250000000
0.341796875000000
0.356445312500000
0.380859375000000
0.410156250000000
0.439453125000000
0.468750000000000
0.498046875000000
0.522460937500000
0.541992187500000
0.566406250000000
0.581054687500000
0.595703125000000
0.605468750000000
0.615234375000000
0.620117187500000
0.620117187500000
0.620117187500000
0.620117187500000
0.615234375000000
0.610351562500000
0.605468750000000
0.595703125000000
0.585937500000000
0.576171875000000
0.571289062500000
0.561523437500000
0.551757812500000
0.546875000000000
0.537109375000000
0.532226562500000
0.522460937500000
0.512695312500000
0.507812500000000
0.498046875000000
0.493164062500000
0.483398437500000
0.473632812500000
0.468750000000000
0.458984375000000
0.454101562500000
0.444335937500000
0.439453125000000
0.429687500000000
0.424804687500000
0.415039062500000
0.410156250000000
0.405273437500000
0.400390625000000
0.395507812500000
0.390625000000000
0.385742187500000
0.380859375000000
0.380859375000000
0.371093750000000
0.366210937500000
0.366210937500000
0.361328125000000
0.356445312500000
0.356445312500000
0.351562500000000
0.346679687500000
0.346679687500000
0.341796875000000
0.341796875000000
0.341796875000000
0.336914062500000
0.332031250000000
0.332031250000000
0.332031250000000
0.332031250000000
0.327148437500000
0.332031250000000
0.336914062500000
0.351562500000000
0.375976562500000
0.400390625000000
0.429687500000000
0.458984375000000
0.488281250000000
0.517578125000000
0.541992187500000
0.561523437500000
0.576171875000000
0.590820312500000
0.605468750000000
0.610351562500000
0.620117187500000
0.620117187500000
0.625000000000000
0.625000000000000
0.615234375000000
0.620117187500000
0.610351562500000
0.605468750000000
0.595703125000000
0.585937500000000
0.581054687500000
0.571289062500000
0.561523437500000
0.551757812500000
0.546875000000000
0.541992187500000
0.532226562500000
0.522460937500000
0.522460937500000
0.507812500000000
0.502929687500000
0.493164062500000
0.488281250000000
0.483398437500000
0.478515625000000
0.473632812500000
0.463867187500000
0.458984375000000
0.449218750000000
0.444335937500000
0.434570312500000
0.434570312500000
0.419921875000000
0.419921875000000
0.415039062500000
0.405273437500000
0.405273437500000
0.395507812500000
0.390625000000000
0.390625000000000
0.385742187500000
0.380859375000000
0.380859375000000
0.371093750000000
0.371093750000000
0.366210937500000
0.361328125000000
0.361328125000000
0.356445312500000
0.356445312500000
0.346679687500000
0.346679687500000
0.341796875000000
0.341796875000000
0.341796875000000
0.336914062500000
0.332031250000000
0.332031250000000
0.332031250000000
0.341796875000000
0.361328125000000
0.390625000000000
0.419921875000000
0.444335937500000
0.473632812500000
0.498046875000000
0.522460937500000
0.546875000000000
0.566406250000000
0.581054687500000
0.590820312500000
0.605468750000000
0.615234375000000
0.615234375000000
0.620117187500000
0.620117187500000
0.620117187500000
0.615234375000000
0.605468750000000
0.600585937500000
0.590820312500000
0.585937500000000
0.576171875000000
0.566406250000000
0.556640625000000
0.551757812500000
0.541992187500000
0.537109375000000
0.527343750000000
0.517578125000000
0.512695312500000
0.502929687500000
0.498046875000000
0.493164062500000
0.483398437500000
0.478515625000000
0.473632812500000
0.463867187500000
0.454101562500000
0.449218750000000
0.444335937500000
0.434570312500000
0.424804687500000
0.424804687500000
0.415039062500000
0.405273437500000
0.400390625000000
0.395507812500000
0.385742187500000
0.385742187500000
0.380859375000000
0.371093750000000
0.366210937500000
0.366210937500000
0.361328125000000
0.356445312500000
0.356445312500000
0.351562500000000
0.346679687500000
0.346679687500000
0.341796875000000
0.341796875000000
0.336914062500000
0.336914062500000
0.336914062500000
0.332031250000000
0.332031250000000
0.332031250000000
0.327148437500000
0.327148437500000
0.332031250000000
0.341796875000000
0.366210937500000
0.385742187500000
0.410156250000000
0.439453125000000
0.468750000000000
0.488281250000000
0.512695312500000
0.532226562500000
0.551757812500000
0.561523437500000
0.571289062500000
0.576171875000000
0.581054687500000
0.585937500000000
0.585937500000000
0.581054687500000
0.581054687500000
0.571289062500000
0.566406250000000
0.561523437500000
0.546875000000000
0.537109375000000
0.537109375000000
0.522460937500000
0.517578125000000
0.507812500000000
0.502929687500000
0.493164062500000
0.483398437500000
0.478515625000000
0.473632812500000
0.463867187500000
0.454101562500000
0.449218750000000
0.439453125000000
0.434570312500000
0.429687500000000
0.424804687500000
0.419921875000000
0.410156250000000
0.410156250000000
0.405273437500000
0.400390625000000
0.390625000000000
0.385742187500000
0.385742187500000
0.380859375000000
0.375976562500000
0.375976562500000
0.371093750000000
0.366210937500000
0.366210937500000
0.356445312500000
0.361328125000000
0.351562500000000
0.356445312500000
0.351562500000000
0.346679687500000
0.346679687500000
0.346679687500000
0.346679687500000
0.341796875000000
0.341796875000000
0.341796875000000
0.341796875000000
0.336914062500000
0.341796875000000
0.341796875000000
0.351562500000000
0.366210937500000
0.390625000000000
0.415039062500000
0.449218750000000
0.473632812500000
0.502929687500000
0.532226562500000
0.551757812500000
0.571289062500000
0.585937500000000
0.600585937500000
0.615234375000000
0.625000000000000
0.629882812500000
0.629882812500000
0.629882812500000
0.629882812500000
0.629882812500000
0.620117187500000
0.620117187500000
0.610351562500000
0.600585937500000
0.595703125000000
0.585937500000000
0.576171875000000
0.571289062500000
0.561523437500000
0.556640625000000
0.546875000000000
0.537109375000000
0.532226562500000
0.527343750000000
0.522460937500000
0.512695312500000
0.507812500000000
0.502929687500000
0.493164062500000
0.488281250000000
0.478515625000000
0.473632812500000
0.468750000000000
0.463867187500000
0.454101562500000
0.449218750000000
0.439453125000000
0.439453125000000
0.429687500000000
0.424804687500000
0.415039062500000
0.405273437500000
0.400390625000000
0.395507812500000
0.385742187500000
0.385742187500000
0.380859375000000
0.371093750000000
0.371093750000000
0.366210937500000
0.361328125000000
0.356445312500000
0.351562500000000
0.351562500000000
0.346679687500000
0.341796875000000
0.341796875000000
0.336914062500000
0.341796875000000
0.351562500000000
0.366210937500000
0.390625000000000
0.419921875000000
0.449218750000000
0.478515625000000
0.512695312500000
0.537109375000000
0.561523437500000
0.585937500000000
0.605468750000000
0.620117187500000
0.634765625000000
0.649414062500000
0.659179687500000
0.668945312500000
0.673828125000000
0.673828125000000
0.673828125000000
0.673828125000000
0.668945312500000
0.664062500000000
0.654296875000000
0.644531250000000
0.639648437500000
0.629882812500000
0.615234375000000
0.610351562500000
0.600585937500000
0.595703125000000
0.581054687500000
0.571289062500000
0.561523437500000
0.551757812500000
0.546875000000000
0.537109375000000
0.522460937500000
0.517578125000000
0.507812500000000
0.493164062500000
0.488281250000000
0.478515625000000
0.468750000000000
0.458984375000000
0.449218750000000
0.444335937500000
0.429687500000000
0.419921875000000
0.415039062500000
0.405273437500000
0.395507812500000
0.390625000000000
0.380859375000000
0.375976562500000
0.366210937500000
0.361328125000000
0.356445312500000
0.351562500000000
0.346679687500000
0.341796875000000
0.332031250000000
0.327148437500000
0.322265625000000
0.317382812500000
0.317382812500000
0.307617187500000
0.307617187500000
0.297851562500000
0.302734375000000
0.297851562500000
0.302734375000000
0.317382812500000
0.336914062500000
0.356445312500000
0.380859375000000
0.415039062500000
0.444335937500000
0.463867187500000
0.493164062500000
0.512695312500000
0.532226562500000
0.546875000000000
0.556640625000000
0.566406250000000
0.571289062500000
0.576171875000000
0.581054687500000
0.581054687500000
0.581054687500000
0.571289062500000
0.571289062500000
0.561523437500000
0.556640625000000
0.551757812500000
0.541992187500000
0.537109375000000
0.527343750000000
0.517578125000000
0.512695312500000
0.498046875000000
0.488281250000000
0.483398437500000
0.473632812500000
0.468750000000000
0.463867187500000
0.454101562500000
0.444335937500000
0.439453125000000
0.429687500000000
0.429687500000000
0.415039062500000
0.415039062500000
0.410156250000000
0.400390625000000
0.395507812500000
0.390625000000000
0.385742187500000
0.380859375000000
0.375976562500000
0.375976562500000
0.371093750000000
0.366210937500000
0.361328125000000
0.361328125000000
0.356445312500000
0.356445312500000
0.351562500000000
0.351562500000000
0.346679687500000
0.346679687500000
0.346679687500000
0.341796875000000
0.341796875000000
0.341796875000000
0.336914062500000
0.336914062500000
0.346679687500000
0.361328125000000
0.385742187500000
0.415039062500000
0.449218750000000
0.473632812500000
0.507812500000000
0.537109375000000
0.561523437500000
0.581054687500000
0.600585937500000
0.620117187500000
0.629882812500000
0.649414062500000
0.659179687500000
0.664062500000000
0.668945312500000
0.668945312500000
0.668945312500000
0.668945312500000
0.659179687500000
0.654296875000000
0.644531250000000
0.634765625000000
0.629882812500000
0.615234375000000
0.605468750000000
0.595703125000000
0.581054687500000
0.571289062500000
0.561523437500000
0.546875000000000
0.537109375000000
0.527343750000000
0.522460937500000
0.512695312500000
0.502929687500000
0.493164062500000
0.483398437500000
0.473632812500000
0.468750000000000
0.454101562500000
0.449218750000000
0.444335937500000
0.429687500000000
0.424804687500000
0.410156250000000
0.400390625000000
0.395507812500000
0.390625000000000
0.380859375000000
0.375976562500000
0.371093750000000
0.366210937500000
0.361328125000000
0.356445312500000
0.346679687500000
0.346679687500000
0.341796875000000
0.336914062500000
0.336914062500000
0.332031250000000
0.327148437500000
0.327148437500000
0.322265625000000
0.317382812500000
0.317382812500000
0.312500000000000
0.312500000000000
0.312500000000000
0.317382812500000
0.336914062500000
0.356445312500000
0.385742187500000
0.419921875000000
0.454101562500000
0.488281250000000
0.517578125000000
0.541992187500000
0.566406250000000
0.590820312500000
0.610351562500000
0.629882812500000
0.639648437500000
0.654296875000000
0.659179687500000
0.668945312500000
0.673828125000000
0.673828125000000
0.673828125000000
0.668945312500000
0.659179687500000
0.654296875000000
0.644531250000000
0.634765625000000
0.629882812500000
0.620117187500000
0.610351562500000
0.605468750000000
0.600585937500000
0.590820312500000
0.581054687500000
0.576171875000000
0.571289062500000
0.561523437500000
0.556640625000000
0.546875000000000
0.541992187500000
0.532226562500000
0.527343750000000
0.512695312500000
0.507812500000000
0.502929687500000
0.488281250000000
0.478515625000000
0.473632812500000
0.458984375000000
0.449218750000000
0.439453125000000
0.434570312500000
0.424804687500000
0.415039062500000
0.410156250000000
0.395507812500000
0.395507812500000
0.385742187500000
0.375976562500000
0.371093750000000
0.366210937500000
0.356445312500000
0.351562500000000
0.346679687500000
0.341796875000000
0.336914062500000
0.327148437500000
0.327148437500000
0.322265625000000
0.317382812500000
0.317382812500000
0.312500000000000
0.312500000000000
0.307617187500000
0.307617187500000
0.302734375000000
0.302734375000000
0.317382812500000
0.332031250000000
0.366210937500000
0.390625000000000
0.424804687500000
0.454101562500000
0.488281250000000
0.512695312500000
0.537109375000000
0.556640625000000
0.576171875000000
0.590820312500000
0.605468750000000
0.620117187500000
0.629882812500000
0.634765625000000
0.634765625000000
0.639648437500000
0.639648437500000
0.634765625000000
0.634765625000000
0.629882812500000
0.615234375000000
0.610351562500000
0.600585937500000
0.590820312500000
0.581054687500000
0.571289062500000
0.561523437500000
0.551757812500000
0.546875000000000
0.537109375000000
0.522460937500000
0.517578125000000
0.502929687500000
0.493164062500000
0.483398437500000
0.473632812500000
0.463867187500000
0.454101562500000
0.444335937500000
0.434570312500000
0.424804687500000
0.415039062500000
0.410156250000000
0.400390625000000
0.395507812500000
0.390625000000000
0.380859375000000
0.375976562500000
0.366210937500000
0.366210937500000
0.361328125000000
0.356445312500000
0.351562500000000
0.346679687500000
0.341796875000000
0.336914062500000
0.332031250000000
0.327148437500000
0.327148437500000
0.322265625000000
0.322265625000000
0.317382812500000
0.312500000000000
0.312500000000000
0.307617187500000
0.307617187500000
0.307617187500000
0.307617187500000
0.302734375000000
0.297851562500000
0.297851562500000
0.297851562500000
0.297851562500000
0.302734375000000
0.312500000000000
0.332031250000000
0.361328125000000
0.395507812500000
0.424804687500000
0.458984375000000
0.483398437500000
0.512695312500000
0.537109375000000
0.556640625000000
0.576171875000000
0.595703125000000
0.605468750000000
0.615234375000000
0.620117187500000
0.629882812500000
0.629882812500000
0.629882812500000
0.629882812500000
0.615234375000000
0.610351562500000
0.605468750000000
0.595703125000000
0.585937500000000
0.576171875000000
0.566406250000000
0.556640625000000
0.546875000000000
0.532226562500000
0.527343750000000
0.517578125000000
0.502929687500000
0.493164062500000
0.483398437500000
0.473632812500000
0.463867187500000
0.454101562500000
0.444335937500000
0.434570312500000
0.419921875000000
0.419921875000000
0.410156250000000
0.400390625000000
0.395507812500000
0.385742187500000
0.380859375000000
0.371093750000000
0.366210937500000
0.361328125000000
0.351562500000000
0.351562500000000
0.346679687500000
0.341796875000000
0.336914062500000
0.332031250000000
0.327148437500000
0.322265625000000
0.322265625000000
0.317382812500000
0.317382812500000
0.317382812500000
0.312500000000000
0.312500000000000
0.302734375000000
0.307617187500000
0.302734375000000
0.302734375000000
0.297851562500000
0.297851562500000
0.302734375000000
0.297851562500000
0.297851562500000
0.297851562500000
0.302734375000000
0.317382812500000
0.341796875000000
0.375976562500000
0.405273437500000
0.439453125000000
0.478515625000000
0.512695312500000
0.537109375000000
0.561523437500000
0.585937500000000
0.605468750000000
0.625000000000000
0.634765625000000
0.649414062500000
0.664062500000000
0.664062500000000
0.673828125000000
0.673828125000000
0.673828125000000
0.668945312500000
0.664062500000000
0.659179687500000
0.654296875000000
0.644531250000000
0.634765625000000
0.629882812500000
0.615234375000000
0.610351562500000
0.600585937500000
0.595703125000000
0.576171875000000
0.571289062500000
0.561523437500000
0.551757812500000
0.537109375000000
0.527343750000000
0.517578125000000
0.507812500000000
0.498046875000000
0.488281250000000
0.483398437500000
0.468750000000000
0.463867187500000
0.454101562500000
0.439453125000000
0.434570312500000
0.424804687500000
0.419921875000000
0.410156250000000
0.405273437500000
0.400390625000000
0.395507812500000
0.390625000000000
0.385742187500000
0.380859375000000
0.375976562500000
0.371093750000000
0.366210937500000
0.366210937500000
0.366210937500000
0.356445312500000
0.351562500000000
0.351562500000000
0.346679687500000
0.346679687500000
0.346679687500000
0.336914062500000
0.341796875000000
0.336914062500000
0.332031250000000
0.332031250000000
0.327148437500000
0.332031250000000
0.332031250000000
0.327148437500000
0.327148437500000
0.327148437500000
0.322265625000000
0.327148437500000
0.332031250000000
0.341796875000000
0.356445312500000
0.375976562500000
0.400390625000000
0.419921875000000
0.439453125000000
0.463867187500000
0.483398437500000
0.502929687500000
0.512695312500000
0.522460937500000
0.527343750000000
0.532226562500000
0.537109375000000
0.537109375000000
0.532226562500000
0.532226562500000
0.522460937500000
0.517578125000000
0.512695312500000
0.507812500000000
0.502929687500000
0.493164062500000
0.483398437500000
0.478515625000000
0.468750000000000
0.463867187500000
0.454101562500000
0.444335937500000
0.434570312500000
0.429687500000000
0.419921875000000
0.415039062500000
0.405273437500000
0.400390625000000
0.390625000000000
0.385742187500000
0.380859375000000
0.375976562500000
0.371093750000000
0.366210937500000
0.366210937500000
0.361328125000000
0.361328125000000
0.356445312500000
0.351562500000000
0.351562500000000
0.346679687500000
0.341796875000000
0.336914062500000
0.336914062500000
0.332031250000000
0.332031250000000
0.327148437500000
0.327148437500000
0.322265625000000
0.322265625000000
0.322265625000000
0.317382812500000
0.317382812500000
0.317382812500000
0.317382812500000
0.317382812500000
0.312500000000000
0.317382812500000
0.317382812500000
0.317382812500000
0.317382812500000
0.317382812500000
0.322265625000000
0.336914062500000
0.361328125000000
0.390625000000000
0.415039062500000
0.444335937500000
0.473632812500000
0.498046875000000
0.522460937500000
0.541992187500000
0.556640625000000
0.571289062500000
0.581054687500000
0.590820312500000
0.595703125000000
0.600585937500000
0.605468750000000
0.600585937500000
0.600585937500000
0.595703125000000
0.590820312500000
0.585937500000000
0.576171875000000
0.571289062500000
0.561523437500000
0.556640625000000
0.546875000000000
0.537109375000000
0.527343750000000
0.517578125000000
0.507812500000000
0.498046875000000
0.488281250000000
0.478515625000000
0.473632812500000
0.468750000000000
0.454101562500000
0.454101562500000
0.449218750000000
0.434570312500000
0.429687500000000
0.424804687500000
0.419921875000000
0.410156250000000
0.405273437500000
0.400390625000000
0.395507812500000
0.395507812500000
0.390625000000000
0.385742187500000
0.375976562500000
0.375976562500000
0.375976562500000
0.371093750000000
0.366210937500000
0.366210937500000
0.361328125000000
0.356445312500000
0.351562500000000
0.356445312500000
0.346679687500000
0.346679687500000
0.346679687500000
0.341796875000000
0.341796875000000
0.341796875000000
0.336914062500000
0.341796875000000
0.336914062500000
0.336914062500000
0.341796875000000
0.346679687500000
0.371093750000000
0.395507812500000
0.424804687500000
0.454101562500000
0.483398437500000
0.512695312500000
0.537109375000000
0.556640625000000
0.581054687500000
0.600585937500000
0.610351562500000
0.620117187500000
0.629882812500000
0.629882812500000
0.639648437500000
0.634765625000000
0.634765625000000
0.629882812500000
0.620117187500000
0.615234375000000
0.610351562500000
0.600585937500000
0.590820312500000
0.581054687500000
0.576171875000000
0.566406250000000
0.556640625000000
0.551757812500000
0.541992187500000
0.527343750000000
0.522460937500000
0.512695312500000
0.507812500000000
0.493164062500000
0.488281250000000
0.473632812500000
0.463867187500000
0.458984375000000
0.449218750000000
0.444335937500000
0.434570312500000
0.429687500000000
0.419921875000000
0.415039062500000
0.405273437500000
0.400390625000000
0.400390625000000
0.395507812500000
0.390625000000000
0.385742187500000
0.380859375000000
0.380859375000000
0.375976562500000
0.371093750000000
0.371093750000000
0.366210937500000
0.361328125000000
0.361328125000000
0.356445312500000
0.356445312500000
0.356445312500000
0.351562500000000
0.346679687500000
0.346679687500000
0.346679687500000
0.346679687500000
0.341796875000000
0.346679687500000
0.341796875000000
0.341796875000000
0.346679687500000
0.356445312500000
0.380859375000000
0.405273437500000
0.429687500000000
0.458984375000000
0.488281250000000
0.517578125000000
0.541992187500000
0.561523437500000
0.576171875000000
0.595703125000000
0.605468750000000
0.615234375000000
0.620117187500000
0.625000000000000
0.625000000000000
0.620117187500000
0.615234375000000
0.615234375000000
0.610351562500000
0.600585937500000
0.590820312500000
0.581054687500000
0.576171875000000
0.561523437500000
0.556640625000000
0.546875000000000
0.537109375000000
0.527343750000000
0.517578125000000
0.507812500000000
0.502929687500000
0.493164062500000
0.483398437500000
0.473632812500000
0.463867187500000
0.458984375000000
0.449218750000000
0.439453125000000
0.434570312500000
0.424804687500000
0.419921875000000
0.410156250000000
0.410156250000000
0.405273437500000
0.395507812500000
0.390625000000000
0.385742187500000
0.380859375000000
0.375976562500000
0.375976562500000
0.366210937500000
0.366210937500000
0.361328125000000
0.361328125000000
0.356445312500000
0.351562500000000
0.351562500000000
0.351562500000000
0.346679687500000
0.351562500000000
0.346679687500000
0.341796875000000
0.346679687500000
0.341796875000000
0.341796875000000
0.336914062500000
0.336914062500000
0.341796875000000
0.336914062500000
0.336914062500000
0.336914062500000
0.336914062500000
0.351562500000000
0.366210937500000
0.395507812500000
0.424804687500000
0.449218750000000
0.483398437500000
0.512695312500000
0.537109375000000
0.556640625000000
0.581054687500000
0.595703125000000
0.610351562500000
0.620117187500000
0.629882812500000
0.634765625000000
0.639648437500000
0.644531250000000
0.639648437500000
0.639648437500000
0.629882812500000
0.620117187500000
0.615234375000000
0.605468750000000
0.600585937500000
0.590820312500000
0.585937500000000
0.576171875000000
0.571289062500000
0.561523437500000
0.551757812500000
0.541992187500000
0.532226562500000
0.527343750000000
0.512695312500000
0.502929687500000
0.498046875000000
0.483398437500000
0.478515625000000
0.468750000000000
0.458984375000000
0.454101562500000
0.444335937500000
0.439453125000000
0.429687500000000
0.419921875000000
0.410156250000000
0.410156250000000
0.400390625000000
0.395507812500000
0.395507812500000
0.385742187500000
0.380859375000000
0.375976562500000
0.371093750000000
0.371093750000000
0.366210937500000
0.361328125000000
0.356445312500000
0.356445312500000
0.351562500000000
0.346679687500000
0.341796875000000
0.346679687500000
0.336914062500000
0.336914062500000
0.336914062500000
0.332031250000000
0.327148437500000
0.327148437500000
0.327148437500000
0.327148437500000
0.322265625000000
0.322265625000000
0.322265625000000
0.322265625000000
0.336914062500000
0.351562500000000
0.375976562500000
0.405273437500000
0.439453125000000
0.468750000000000
0.498046875000000
0.527343750000000
0.551757812500000
0.571289062500000
0.590820312500000
0.605468750000000
0.615234375000000
0.625000000000000
0.629882812500000
0.634765625000000
0.634765625000000
0.629882812500000
0.629882812500000
0.625000000000000
0.615234375000000
0.610351562500000
0.605468750000000
0.595703125000000
0.590820312500000
0.581054687500000
0.576171875000000
0.571289062500000
0.561523437500000
0.551757812500000
0.541992187500000
0.537109375000000
0.527343750000000
0.517578125000000
0.507812500000000
0.502929687500000
0.493164062500000
0.488281250000000
0.483398437500000
0.468750000000000
0.463867187500000
0.458984375000000
0.449218750000000
0.444335937500000
0.434570312500000
0.429687500000000
0.424804687500000
0.419921875000000
0.415039062500000
0.410156250000000
0.405273437500000
0.405273437500000
0.395507812500000
0.390625000000000
0.385742187500000
0.380859375000000
0.380859375000000
0.375976562500000
0.375976562500000
0.371093750000000
0.361328125000000
0.361328125000000
0.361328125000000
0.356445312500000
0.356445312500000
0.351562500000000
0.346679687500000
0.346679687500000
0.341796875000000
0.341796875000000
0.336914062500000
0.336914062500000
0.336914062500000
0.336914062500000
0.336914062500000
0.346679687500000
0.361328125000000
0.380859375000000
0.410156250000000
0.439453125000000
0.468750000000000
0.493164062500000
0.517578125000000
0.541992187500000
0.561523437500000
0.576171875000000
0.590820312500000
0.595703125000000
0.605468750000000
0.610351562500000
0.615234375000000
0.615234375000000
0.615234375000000
0.610351562500000
0.605468750000000
0.595703125000000
0.590820312500000
0.581054687500000
0.571289062500000
0.566406250000000
0.556640625000000
0.546875000000000
0.537109375000000
0.527343750000000
0.522460937500000
0.507812500000000
0.498046875000000
0.493164062500000
0.478515625000000
0.473632812500000
0.468750000000000
0.458984375000000
0.449218750000000
0.439453125000000
0.434570312500000
0.424804687500000
0.419921875000000
0.410156250000000
0.405273437500000
0.395507812500000
0.395507812500000
0.385742187500000
0.380859375000000
0.375976562500000
0.371093750000000
0.371093750000000
0.371093750000000
0.366210937500000
0.361328125000000
0.356445312500000
0.356445312500000
0.356445312500000
0.351562500000000
0.351562500000000
0.346679687500000
0.346679687500000
0.346679687500000
0.346679687500000
0.341796875000000
0.341796875000000
0.336914062500000
0.336914062500000
0.336914062500000
0.332031250000000
0.332031250000000
0.332031250000000
0.332031250000000
0.327148437500000
0.327148437500000
0.332031250000000
0.346679687500000
0.371093750000000
0.395507812500000
0.424804687500000
0.454101562500000
0.483398437500000
0.512695312500000
0.537109375000000
0.551757812500000
0.571289062500000
0.590820312500000
0.600585937500000
0.610351562500000
0.620117187500000
0.620117187500000
0.625000000000000
0.620117187500000
0.615234375000000
0.610351562500000
0.605468750000000
0.600585937500000
0.595703125000000
0.585937500000000
0.576171875000000
0.566406250000000
0.556640625000000
0.551757812500000
0.537109375000000
0.527343750000000
0.522460937500000
0.507812500000000
0.502929687500000
0.493164062500000
0.483398437500000
0.478515625000000
0.468750000000000
0.463867187500000
0.458984375000000
0.449218750000000
0.439453125000000
0.429687500000000
0.424804687500000
0.419921875000000
0.415039062500000
0.410156250000000
0.405273437500000
0.400390625000000
0.395507812500000
0.390625000000000
0.385742187500000
0.385742187500000
0.380859375000000
0.380859375000000
0.375976562500000
0.371093750000000
0.371093750000000
0.366210937500000
0.366210937500000
0.361328125000000
0.356445312500000
0.356445312500000
0.356445312500000
0.351562500000000
0.351562500000000
0.346679687500000
0.346679687500000
0.346679687500000
0.346679687500000
0.346679687500000
0.346679687500000
0.341796875000000
0.341796875000000
0.346679687500000
0.346679687500000
0.361328125000000
0.385742187500000
0.400390625000000
0.434570312500000
0.463867187500000
0.493164062500000
0.512695312500000
0.537109375000000
0.556640625000000
0.571289062500000
0.585937500000000
0.600585937500000
0.605468750000000
0.615234375000000
0.615234375000000
0.615234375000000
0.620117187500000
0.610351562500000
0.610351562500000
0.605468750000000
0.595703125000000
0.590820312500000
0.581054687500000
0.576171875000000
